Tau (s),AD_ax (m/s),AD_ay (m/s),AD_az (m/s)
0.006700277328491211,0.0024100185876212267,0.002350619853775803,0.002756553510161449
0.013400554656982422,0.002812201475779315,0.002737479244906422,0.003469877977371655
0.020100831985473633,0.003130060371462755,0.0030587568530314156,0.003767588783075652
0.026801109313964844,0.0033423405617587516,0.0032791280175352958,0.003726184316090293
0.033501386642456055,0.0034765290386182656,0.0034248030065169265,0.0036027613967925254
0.040201663970947266,0.003556854185895205,0.003515830428965921,0.0035419957424836696
0.04690194129943848,0.003602655813231416,0.0035678300248936923,0.003523594336918905
0.05360221862792969,0.0036251025143418285,0.0035911444539525684,0.003507146200694986
0.0603024959564209,0.003631482469968439,0.0035943817523930582,0.003507863673987827
0.06700277328491211,0.003626948627258555,0.0035842787004420097,0.0035251690980270126
0.07370305061340332,0.003614765341641661,0.00356576242495943,0.0035258294896953154
0.08040332794189453,0.0035967328639942625,0.003542060727429601,0.0035011679495471288
0.08710360527038574,0.0035737404023319192,0.0035151857205280674,0.00347692724790204
0.09380388259887695,0.0035469451500036884,0.0034863683592566055,0.0034639838493128253
0.10050415992736816,0.003517753978839719,0.0034563051276587176,0.0034572009300409944
0.10720443725585938,0.0034872471596143683,0.003425360680753962,0.0034559205945771444
0.11390471458435059,0.0034558420267229786,0.0033935979891969335,0.0034581898404142
0.1206049919128418,0.003423718345415708,0.0033611914562462204,0.0034519361170023675
0.127305269241333,0.0033909877117599217,0.0033285164199068538,0.003431138769494714
0.13400554656982422,0.003357957404895036,0.003295966509988891,0.003405481033574685
0.14070582389831543,0.003324882153776308,0.003263812780931143,0.0033849442920043265
0.14740610122680664,0.003291908446854515,0.0032320902162338333,0.003370064297469767
0.16080665588378906,0.003227254574366162,0.003169429101299127,0.0033532134530668517
0.16750693321228027,0.0031960846575977224,0.003138237722987518,0.0033468615347059132
0.17420721054077148,0.00316577046556861,0.003107082109720633,0.0033371379769724734
0.1876077651977539,0.0031072276696850316,0.003045496113252253,0.0033198057141676745
0.20100831985473633,0.003051119589140604,0.0029857663775121153,0.0033110511556314354
0.21440887451171875,0.002997245544576397,0.0029283271107189844,0.003301959986861839
0.22110915184020996,0.002971168024080696,0.002900504524316159,0.0032955177213540424
0.23450970649719238,0.0029209030981964374,0.002846575385248404,0.00328390828474535
0.254610538482666,0.002850931307631027,0.002770422140336021,0.003281318740066719
0.26801109313964844,0.0028076394981405802,0.0027227227227261466,0.00328514664985055
0.28141164779663086,0.002766556633121477,0.0026768730943605213,0.0032873261180020224
0.3015124797821045,0.002708289784039501,0.002611253852770162,0.003291648831010409
0.3149130344390869,0.0026711593464277318,0.0025701574198728145,0.0032973416535107057
0.33501386642456055,0.0026174055521264645,0.0025127854069706248,0.0033056727590595396
0.3551146984100342,0.002565948292703383,0.0024600421910710617,0.003319060607998309
0.381915807723999,0.0025019829804542836,0.0023961710403479415,0.003333496081919506
0.40201663970947266,0.002457430021485481,0.002352089480276922,0.0033452582017277055
0.4288177490234375,0.0024021816115908745,0.0022981226406552724,0.00336160097822059
0.44891858100891113,0.002363637212604512,0.0022611165602817876,0.003374421871624175
0.4824199676513672,0.0023039177791300144,0.0022051277155362764,0.0033913540899996593
0.509221076965332,0.002259656466821821,0.0021645097317119695,0.0034057469657338543
0.5360221862792969,0.0022181263716165595,0.0021266422847888307,0.0034182735595586215
0.5695235729217529,0.0021696194917901384,0.0020834817843178393,0.0034314746951761683
0.6097252368927002,0.0021169247623570825,0.002036579186677673,0.003446394837115013
0.6432266235351562,0.0020773976509811803,0.0020000784844238636,0.0034557806433646397
0.6834282875061035,0.0020342834546571965,0.0019587388211770593,0.003467079476693439
0.7236299514770508,0.001995007483333388,0.0019204939111812658,0.003475784542602816
0.7705318927764893,0.00195328060281872,0.0018790966082872713,0.0034842878777510446
0.8174338340759277,0.0019150685918588462,0.0018411004465738606,0.0034899346559731557
0.8643357753753662,0.001879460500453454,0.0018060405124296925,0.003494313819010628
0.9179379940032959,0.0018416923142182907,0.001769412201876748,0.0034961599793066557
0.9715402126312256,0.0018072627935215673,0.0017371151892938725,0.0034953539709746033
1.0318427085876465,0.0017722650205983705,0.001704555575859353,0.0034925334458848025
1.0921452045440674,0.001740442412789407,0.0016753820807713675,0.0034879651732763186
1.1591479778289795,0.0017080345727721628,0.0016454854484582518,0.0034808806622442182
1.2328510284423828,0.0016751853211505485,0.0016161094867195702,0.003470898070897844
1.3065540790557861,0.0016454404036741,0.0015904968863969609,0.003458620986274579
1.3869574069976807,0.001615945346578788,0.0015663623825077414,0.0034428924167391813
1.4673607349395752,0.0015890820898589765,0.001545158674067154,0.003425757845029832
1.5611646175384521,0.001560710142019173,0.001524011196102045,0.0034050373471968933
1.654968500137329,0.001535304310745844,0.0015057407461037291,0.00338305908823027
1.7554726600646973,0.0015117546433654505,0.0014887572615072064,0.003358730670993245
1.8626770973205566,0.0014888254848108911,0.0014711788623866019,0.0033329413023294088
1.9765818119049072,0.0014664112406342147,0.00145291379115136,0.003306225962450126
2.097186803817749,0.001444018698566651,0.0014348155991748244,0.0032785350594783046
2.224492073059082,0.0014225586590897363,0.0014171825096954598,0.003250434075415656
2.3584976196289062,0.0014031824156460857,0.0014008003415880174,0.0032227347367047225
2.4992034435272217,0.0013849870520056887,0.0013846576151988765,0.0031953770339870047
2.6533098220825195,0.0013666526325046273,0.0013676792585269313,0.003166300369458952
2.8141164779663086,0.0013494196590927707,0.0013516293138722598,0.00313607214828394
2.98832368850708,0.0013317321048325783,0.00133522022900516,0.0031038053901721574
3.1692311763763428,0.0013136372129456046,0.001319270756804131,0.0030705149533762867
3.363539218902588,0.001294022895861786,0.0013027288461703404,0.003035335745217313
3.564547538757324,0.001273722071050265,0.0012856906386951444,0.0029987349631601054
3.785656690597534,0.0012524497750588549,0.001268668778964469,0.0029577992942478523
4.013466119766235,0.0012307828128146432,0.001251936912859505,0.0029145303187681363
4.26137638092041,0.0012090200476067912,0.0012343845773315305,0.0028667277937022818
4.522687196731567,0.0011871342466572743,0.0012171221069553991,0.00281605729043749
4.797398567199707,0.0011649942118826609,0.0012003164723750348,0.002763775803365176
5.085510492324829,0.0011435607124887339,0.001184071346942186,0.0027104993416653443
5.400423526763916,0.001122144914783035,0.0011679939667512357,0.0026559744883977196
5.728737115859985,0.0011011249820735034,0.0011522383642726293,0.002603920882295339
6.077151536941528,0.0010806351360472587,0.0011371058159949214,0.002553784080303134
6.445666790008545,0.0010618187871480698,0.0011218333196256582,0.002505726465871034
6.840983152389526,0.0010433472281219294,0.001106951013439179,0.0024601543080501847
7.2564003467559814,0.0010247848510303353,0.001093254434239008,0.002418325396431567
7.698618650436401,0.0010064228392826983,0.0010798546404144627,0.002380570532665559
8.167638063430786,0.0009874236305030411,0.0010671422114766035,0.002346326061097132
8.670158863067627,0.0009680052115215368,0.0010545722732237207,0.0023132644524285367
9.199480772018433,0.0009489477615220856,0.001040762762345857,0.002281154457364167
9.755603790283203,0.0009301224890793023,0.0010259200184506542,0.0022522748382711915
10.351928472518921,0.0009105808311450587,0.001010734579005214,0.0022252524241239053
10.981754541397095,0.0008901944016947933,0.0009950945883944948,0.0021987572990166196
11.651782274246216,0.0008702234900089968,0.0009786795147452,0.002169525959099265
12.362011671066284,0.0008495970082490757,0.0009612194765130723,0.0021381677317708426
