time,ecg_signal
0.00028967857360839844,2.241138486997901
0.0027213096618652344,2.2133001343369645
0.005087137222290039,2.130720869388684
0.008396387100219727,2.08129132763044
0.010761737823486328,2.0684679828248003
0.013284921646118164,2.067983993051528
0.015651941299438477,2.0639249162584443
0.01820540428161621,2.0595117878331886
0.020617246627807617,2.0564272470983562
0.02308344841003418,2.023536208097483
0.025472164154052734,1.9888099418651988
0.028014421463012695,1.9678630790547227
0.030400991439819336,1.9432028464320714
0.03287816047668457,1.9532092753898234
0.03522610664367676,1.9687499962747093
0.0377810001373291,1.9627668813189127
0.040209293365478516,1.992619275166902
0.04267382621765137,1.9921990623711423
0.04502224922180176,2.0453634316162383
0.04748225212097168,2.1095916163434527
0.04975724220275879,2.1741243808417776
0.052018165588378906,2.2266515763582677
0.054286956787109375,2.274627956703658
0.05654549598693848,2.3238631872967703
0.05879974365234375,2.377353593987655
0.061057090759277344,2.426336696903312
0.06331157684326172,2.469470795329904
0.06556940078735352,2.511725725141254
0.06782364845275879,2.553261226804403
0.07008004188537598,2.5803783631775814
0.07237577438354492,2.60500462114866
0.07466983795166016,2.611292315875568
0.07698917388916016,2.5701811993338106
0.0793299674987793,2.5564906068433055
0.0818028450012207,2.5966414924432626
0.08406758308410645,2.6235672978839037
0.08633303642272949,2.6539614980174897
0.08859014511108398,2.6825729230133204
0.09084367752075195,2.705737674920282
0.09309959411621094,2.7295407926488866
0.09535670280456543,2.747330993095755
0.09763884544372559,2.7685341559093186
0.09989404678344727,2.784076068887242
0.10215020179748535,2.798501586735438
0.10440587997436523,2.8101703894341457
0.10666108131408691,2.8213236118940843
0.10891604423522949,2.8291634117559687
0.11116909980773926,2.836103777420971
0.11342477798461914,2.838889102803362
0.11568140983581543,2.841579656789262
0.1179358959197998,2.8454146200912738
0.12018895149230957,2.8493395864176256
0.12248063087463379,2.7706912482608854
0.12487483024597168,2.7246001630544856
0.1272118091583252,2.695500575959751
0.12952828407287598,2.719879474625525
0.1317896842956543,2.7136501924574605
0.13404631614685059,2.7170124908700575
0.1363053321838379,2.717196669244369
0.13856077194213867,2.715102757823796
0.14081645011901855,2.7147594350289626
0.14307022094726562,2.7104094875347005
0.14534711837768555,2.6883700714552488
0.14763116836547852,2.6915344824236014
0.14989829063415527,2.6533249203354026
0.15222859382629395,2.614856078011522
0.15459036827087402,2.573399850535375
0.15691781044006348,2.563753433674983
0.1591784954071045,2.559994764327379
0.1614375114440918,2.5621530487719832
0.16369104385375977,2.560497827589253
0.16595149040222168,2.560345835726957
0.16820549964904785,2.559600181531928
0.17046070098876953,2.5586339901249397
0.17271637916564941,2.5558045573001573
0.17497587203979492,2.53926426640323
0.1772325038909912,2.5528332654038985
0.1795520782470703,2.552293843304377
0.1818079948425293,2.5501826465347586
0.18406176567077637,2.542926972261306
0.18631815910339355,2.542411988069056
0.18857336044311523,2.5381770775529238
0.1908268928527832,2.535954420084288
0.193101167678833,2.536762063117273
0.1953568458557129,2.5236359266800794
0.19762897491455078,2.5002703070962795
0.19991683959960938,2.506638468103226
0.20218420028686523,2.502882182941697
0.20444321632385254,2.4963054056531675
0.2067098617553711,2.4955657119233265
0.20896530151367188,2.492040692811095
0.21121907234191895,2.4915888895498384
0.21347403526306152,2.4843063931830396
0.21573305130004883,2.484370170160552
0.21798920631408691,2.480374274298462
0.22024321556091309,2.4786952112549794
0.22249913215637207,2.4749758809776163
0.22475552558898926,2.471875843033295
0.22701001167297363,2.4610242201118733
0.22926568984985352,2.460941369645759
0.23151946067810059,2.45900541055267
0.2337803840637207,2.4553683346949025
0.2360386848449707,2.4534919802536943
0.2382960319519043,2.451170975109455
0.24055147171020508,2.4481204090261945
0.24280548095703125,2.443380647108632
0.24506402015686035,2.4423029950026267
0.24731755256652832,2.440024905207742
0.2495715618133545,2.438752941936605
0.25182580947875977,2.437286667500337
0.25408101081848145,2.437050633078889
0.25633668899536133,2.4363711400474477
0.2585914134979248,2.430053046948081
0.2608466148376465,2.4201282763634056
0.26310014724731445,2.4204268956693284
0.26535630226135254,2.4215081240544465
0.2676119804382324,2.420592596601557
0.2698662281036377,2.4218752887100328
0.27212071418762207,2.419616868450268
0.27439308166503906,2.4177363416834283
0.27664875984191895,2.4179902575004406
0.2789022922515869,2.4209710861410003
0.2811574935913086,2.4171569844671468
0.28341126441955566,2.422088673363766
0.28566718101501465,2.4207809473015005
0.2879364490509033,2.4219664838274104
0.2901923656463623,2.4218258168489712
0.2924470901489258,2.417112280978236
0.2947123050689697,2.4196341537993136
0.29697418212890625,2.4210265184672495
0.29923057556152344,2.422153642434316
0.3014860153198242,2.4225661066253315
0.3037395477294922,2.4211731459108763
0.3059961795806885,2.421465804751611
0.30824923515319824,2.422993471979317
0.3105034828186035,2.423093011747958
0.3127586841583252,2.425512960614319
0.315014123916626,2.4262133152739187
0.31726837158203125,2.4278166804095127
0.3195221424102783,2.427715948547834
0.3217768669128418,2.4282744441359574
0.32402968406677246,2.4255213052655824
0.3262953758239746,2.4218854215008525
0.32856082916259766,2.3438873700961316
0.33136796951293945,2.307430184773229
0.3337218761444092,2.2648045140271797
0.33624863624572754,2.218475606259776
0.33858680725097656,2.2242477207479143
0.34091711044311523,2.237673668584069
0.3432142734527588,2.253408700634086
0.34547901153564453,2.2559430904320585
0.34781622886657715,2.251612812472917
0.350130558013916,2.2523662152726907
0.35244178771972656,2.22684052310473
0.35478711128234863,2.2585472176727315
0.3570525646209717,2.265755804271198
0.35930681228637695,2.2851040703182304
0.36162805557250977,2.2602656197864555
0.36394739151000977,2.265808852411372
0.36624908447265625,2.2928246608763527
0.36851978302001953,2.3090937506072224
0.3707730770111084,2.325765767784806
0.3730282783508301,2.3414072205313707
0.3752918243408203,2.3590478133020176
0.3775467872619629,2.376874372586533
0.37979960441589355,2.391493009506823
0.38205456733703613,2.4070837982992885
0.38433051109313965,2.417177846095305
0.38658595085144043,2.4319812574364255
0.3888416290283203,2.442845993381261
0.391094446182251,2.45541959469552
0.39334821701049805,2.4612006498814405
0.39560413360595703,2.4748232930688014
0.3978617191314697,2.4855360371513413
0.4001150131225586,2.4943539493505895
0.4023702144622803,2.5023654106098903
0.4046363830566406,2.500188052676684
0.4068918228149414,2.515420617511346
0.4091463088989258,2.5203755522221987
0.41139936447143555,2.53420800378418
0.4136538505554199,2.5304719842042904
0.415910005569458,2.5366118593945335
0.4181644916534424,2.5399020361783546
0.42041730880737305,2.503891289698039
0.4226982593536377,2.491400538849895
0.42496705055236816,2.4720880355939907
0.42722153663635254,2.4585220168259165
0.4294779300689697,2.4221280124340074
0.4317326545715332,2.428937843911391
0.4340484142303467,2.417687465868886
0.43630361557006836,2.402415561963983
0.4385659694671631,2.3925259581239176
0.440824031829834,2.3806765533300105
0.44307994842529297,2.3681828222492722
0.4453401565551758,2.361932082406531
0.44759511947631836,2.3546477979001756
0.44985151290893555,2.3502549350565594
0.4521064758300781,2.339504640043335
0.454362154006958,2.3321535983268737
0.4566190242767334,2.329595962714668
0.45887255668640137,2.325582781503532
0.4611320495605469,2.3214354898256646
0.46338844299316406,2.3156741041748647
0.46564459800720215,2.289880787119959
0.4678993225097656,2.2931673876246674
0.4701552391052246,2.2999360918922536
0.4724099636077881,2.2918161501665293
0.4746677875518799,2.299882447705561
0.47692322731018066,2.2920617213322783
0.47919392585754395,2.29557660765369
0.48145103454589844,2.3011329533020204
0.4837040901184082,2.2993734239784986
0.4859609603881836,2.3027112844838244
0.48821520805358887,2.306388891504871
0.49047040939331055,2.3078730473367033
0.49306750297546387,2.318640627698973
0.4953446388244629,2.3233869461282426
0.4976363182067871,2.3282196913027398
0.4998927116394043,2.3320671715816466
0.5021483898162842,2.341388147042769
0.5044047832489014,2.338575403520513
0.5066611766815186,2.3429778031084303
0.5089170932769775,2.35987214563753
0.5111699104309082,2.3805114484443006
0.5134251117706299,2.3937597744178505
0.5156786441802979,2.4200042986874934
0.5179331302642822,2.44283645663696
0.5201859474182129,2.4638166980524896
0.5224411487579346,2.480598387789534
0.5246953964233398,2.5031980875966653
0.5269529819488525,2.5185951612705186
0.5292074680328369,2.5369969054456836
0.5314610004425049,2.5498870074614297
0.5337157249450684,2.575720855679614
0.5359683036804199,2.570894070970305
0.5382301807403564,2.5853005153298994
0.5404951572418213,2.594669770559045
0.5427489280700684,2.596416782905672
0.545020341873169,2.6055351025503994
0.5472769737243652,2.615344240110426
0.5495367050170898,2.6174190780423974
0.5517899990081787,2.6290896688806615
0.5540449619293213,2.632164672871193
0.5562996864318848,2.6540365998788595
0.5585541725158691,2.641907053221113
0.5608081817626953,2.6449975544211335
0.5630619525909424,2.645175772330257
0.5653164386749268,2.643961625571445
0.5675702095031738,2.6322153368252916
0.56982421875,2.6358911557067817
0.5720782279968262,2.6368925138583794
0.5743331909179688,2.630520180525801
0.5765888690948486,2.6276138577000925
0.5788416862487793,2.628668263991864
0.5810959339141846,2.6278725418892552
0.5833511352539062,2.6173374196693207
0.5856258869171143,2.622382953451032
0.5878825187683105,2.6208308483160554
0.5901377201080322,2.6150515812696913
0.592390775680542,2.6121303572810124
0.5946452617645264,2.6047822957971447
0.5968995094299316,2.603149724382129
0.5991520881652832,2.5981143233912376
0.6014063358306885,2.5933638326363364
0.6036581993103027,2.5834331015864733
0.6059136390686035,2.5798133110777512
0.6081669330596924,2.5747087686906776
0.6104211807250977,2.5758001298666153
0.6126763820648193,2.5656578023025753
0.6149303913116455,2.5485673604687884
0.6172473430633545,2.482717333163897
0.6195833683013916,2.4241325168767593
0.6219482421875,2.3482510266603263
0.6243119239807129,2.2897919761886567
0.6266791820526123,2.228666809638358
0.6290347576141357,2.194744014113428
0.6313698291778564,2.155791182016275
0.6337084770202637,2.109521878900752
0.6360347270965576,2.086844096999657
0.6383357048034668,2.0652505237162737
0.6406126022338867,2.0461424644163206
0.642888069152832,2.0290561949081654
0.6451950073242188,2.005990386723326
0.6474735736846924,1.9925090065609226
0.6497626304626465,1.9760509700835907
0.6520547866821289,1.9643589215706494
0.6543686389923096,1.947291129504577
0.6566967964172363,1.9485499797522998
0.6592099666595459,1.943884723649588
0.6616120338439941,1.9311954893106806
0.6640932559967041,1.9341286342297357
0.6664383411407471,1.9338180939934366
0.6689531803131104,1.922226181295655
0.6712772846221924,1.9311925090780866
0.6737339496612549,1.9759180517098964
0.6760785579681396,2.0314415730764357
0.6783416271209717,2.0969351645630794
0.680598258972168,2.148709553326315
0.682852029800415,2.197217011119963
0.6851098537445068,2.246401577758977
0.687363862991333,2.29232100156796
0.6896231174468994,2.3371413155962606
0.691878080368042,2.3789056991226314
0.6941320896148682,2.4171766540022674
0.696385383605957,2.456289226566461
0.698641300201416,2.4951490754066796
0.7008960247039795,2.5319173970124003
0.7031517028808594,2.5588557194299364
0.7054085731506348,2.5972846266370566
0.7076611518859863,2.6173684140882987
0.709916353225708,2.654050904995311
0.7121696472167969,2.6758668036302096
0.7144248485565186,2.6999464869435412
0.716679573059082,2.7213385965035672
0.7189326286315918,2.7352729720202653
0.7211875915527344,2.7353993338822526
0.723440408706665,2.7357563657470187
0.7256956100463867,2.7395919250955494
0.7279489040374756,2.7420869758232804
0.7302043437957764,2.7446028881791698
0.73246169090271,2.744281619105532
0.7347352504730225,2.743856041891103
0.7369894981384277,2.7411398579048942
0.7392425537109375,2.739907233703999
0.7414982318878174,2.735001174807689
0.743750810623169,2.7284756575197764
0.7460052967071533,2.732007233143715
0.7482578754425049,2.7207759285898123
0.7505125999450684,2.6955923671236475
0.7527670860290527,2.7059939749233695
0.7550208568572998,2.696954929465643
0.7572758197784424,2.688738428203872
0.7595281600952148,2.6826480248746902
0.7617840766906738,2.6748660415251306
0.7640376091003418,2.667160352129978
0.7662918567657471,2.654852587563108
0.7685470581054688,2.649262267263206
0.7708001136779785,2.6334402124214424
0.7730543613433838,2.616195990585803
0.7753071784973145,2.6098063719041793
0.7775619029998779,2.6031103853118878
0.7798142433166504,2.5955763573141524
0.7820682525634766,2.5871089204679634
0.7843213081359863,2.5739190070532567
0.7865767478942871,2.5664904792893504
0.788832426071167,2.5733450142556444
0.7910881042480469,2.5508627356127187
0.7933425903320312,2.5452658588011094
0.7955965995788574,2.5368502780020568
0.7978529930114746,2.5305148995536446
0.8001062870025635,2.5232347873729215
0.8023607730865479,2.5186166189451957
0.8046159744262695,2.5241693883144127
0.8068687915802002,2.529874149545926
0.8091235160827637,2.5366994782327983
0.8113765716552734,2.5369140549795692
0.813631534576416,2.5391200231456783
0.8158843517303467,2.54314512528719
0.818138599395752,2.546224897649872
0.8203911781311035,2.5456175262472063
0.8226461410522461,2.539332215706374
0.8249001502990723,2.539146249192506
0.8271527290344238,2.552478021678689
0.82940673828125,2.5536808435536438
0.8316600322723389,2.552063769348117
0.83392333984375,2.542473976907012
0.8361790180206299,2.5439360790176484
0.8384339809417725,2.5444486790238234
0.840688943862915,2.5393244671016295
0.8429419994354248,2.539512817801573
0.845198392868042,2.5377455398733066
0.8474516868591309,2.5381997273206385
0.8497066497802734,2.536946241491585
0.8519597053527832,2.5377467319663443
0.8542141914367676,2.5330016056301123
0.8564672470092773,2.534341518204393
0.8587284088134766,2.5302884018764975
0.8609828948974609,2.5116184367678684
0.8632943630218506,2.447736555068082
0.865746259689331,2.403978395936298
0.8681414127349854,2.363575382658885
0.870530366897583,2.3047241335778397
0.8729677200317383,2.2700419747879477
0.8753809928894043,2.207258010775806
0.8778386116027832,2.1876349672836026
0.8802778720855713,2.1675112447156004
0.8826806545257568,2.104265940697901
0.8850412368774414,2.0765682550154034
0.8874208927154541,2.0399715948070996
0.8897981643676758,2.0449312978901024
0.892122745513916,2.071967371936723
0.8944473266601562,2.0915129293814814
0.896747350692749,2.1317657389361546
0.8990070819854736,2.160823006728054
0.9012629985809326,2.1927556029266837
0.9035158157348633,2.2242751388877795
0.9057738780975342,2.251122266187938
0.908026933670044,2.2786560390777635
0.9102816581726074,2.3101714027132276
0.91253662109375,2.3376759693236315
0.9147903919219971,2.365865989430665
0.9170451164245605,2.3912051190382386
0.9192981719970703,2.4135962025637867
0.9215550422668457,2.436454586560081
0.9238080978393555,2.4531462732727856
0.9260632991790771,2.4774208637977675
0.9283156394958496,2.4972996112465395
0.9305708408355713,2.4977537986938714
0.9328787326812744,2.4977651235777287
0.9351465702056885,2.5176718852128848
0.9374127388000488,2.533313337959449
0.9396665096282959,2.551091617475941
0.9419209957122803,2.565317459740336
0.94417405128479,2.5808623529508536
0.9464290142059326,2.5928005686760627
0.9486832618713379,2.605716300692117
0.9509387016296387,2.6168784638498384
0.9531939029693604,2.622606470895585
0.9554483890533447,2.63123603239489
0.9577028751373291,2.6368859573466725
0.9599554538726807,2.6435300878918278
0.9622104167938232,2.6515671791514372
0.964463472366333,2.649230676797709
0.9668188095092773,2.631579951236242
0.9691202640533447,2.654025274995002
0.9713785648345947,2.6451555067486177
0.9736354351043701,2.654084879646883
0.9758884906768799,2.639656381566093
0.9781439304351807,2.640185074828276
0.9803969860076904,2.6417777111265317
0.9826526641845703,2.640794234370498
0.9849092960357666,2.653876859411819
0.9871621131896973,2.638702707136
0.989417314529419,2.638836221556213
0.9916706085205078,2.6355585617492867
0.9942262172698975,2.6326438942723147
0.9965054988861084,2.6304629600599956
0.9987611770629883,2.6301238095907937
1.0010182857513428,2.6173415919949523
1.0032703876495361,2.621749356001539
1.0055253505706787,2.6164421577980708
1.0077779293060303,2.613137675897798
1.0100324153900146,2.608634544448202
1.0122857093811035,2.6047137504474818
1.0145394802093506,2.595978092667829
1.016794204711914,2.5928267947228902
1.0190467834472656,2.587234686283432
1.021301507949829,2.581637809471823
1.0235538482666016,2.572784134481446
1.0258088111877441,2.5657656867224796
1.0280611515045166,2.5759366245194224
1.0303161144256592,2.5570681759200307
1.03257155418396,2.546441262536199
1.0348291397094727,2.540618484093962
1.0370876789093018,2.5366523905578124
1.0393397808074951,2.530020180943034
1.0415942668914795,2.5252166420479587
1.0438475608825684,2.506352961820717
1.0461254119873047,2.505814731814233
1.0483825206756592,2.5012364985032676
1.0506386756896973,2.4969640370564505
1.052894115447998,2.490583359072609
1.055147647857666,2.4843445401602433
1.0574018955230713,2.482121286645089
1.0596539974212646,2.47808485961972
1.0619075298309326,2.4759390921520104
1.064159870147705,2.4712780083749304
1.066413402557373,2.470856007439614
1.0686688423156738,2.4611291242991835
1.0709218978881836,2.465132768766018
1.0731759071350098,2.458765799852109
1.0754292011260986,2.4571230956462737
1.0776827335357666,2.453072363504453
1.0799376964569092,2.439993910788764
1.0821921825408936,2.4436744980424043
1.0844449996948242,2.437119178428552
1.0867078304290771,2.4389484451947743
1.0889627933502197,2.436774067494162
1.0912156105041504,2.4375340268056425
1.0934693813323975,2.4363711400474477
1.0957224369049072,2.4382027909997452
1.0979766845703125,2.437601380062268
1.1002297401428223,2.438684992633461
1.1024839878082275,2.4378970191355966
1.1047389507293701,2.431972912785162
1.1069915294647217,2.434723667469462
1.1092469692230225,2.4342438500218213
1.111499309539795,2.437414221455362
1.1137542724609375,2.4322429218581822
1.1160073280334473,2.4359896702754105
1.1182615756988525,2.4293360029859548
1.1206605434417725,2.41201429510287
1.122955322265625,2.413042475347814
1.1252226829528809,2.409200955534095
1.1275250911712646,2.3828396061467654
1.129854440689087,2.3865750296801362
1.132155179977417,2.3805710530961814
1.1344687938690186,2.3781373951598876
1.136730670928955,2.388263033421401
1.1389844417572021,2.394268202098394
1.141242265701294,2.383014247776776
1.1434953212738037,2.401368308230437
1.1457507610321045,2.4194911026347996
1.1480038166046143,2.4144318597831558
1.1502587795257568,2.422011187316321
1.1525180339813232,2.4255236894516576
1.154771327972412,2.4317607202244664
1.1570253372192383,2.435546807711936
1.1592786312103271,2.4411007691741906
1.1615321636199951,2.4467816885449514
1.1637849807739258,2.4454489285288963
1.1660404205322266,2.458614404036332
1.168299674987793,2.456481749592036
1.1705553531646729,2.4598279547486253
1.1728527545928955,2.459574038931613
1.1751060485839844,2.4633732394424963
1.1773614883422852,2.4661824066856393
1.1796140670776367,2.4709972704645717
1.181868553161621,2.4561479635415036
1.1841211318969727,2.467711862052901
1.1863746643066406,2.470297511851491
1.188628911972046,2.4611237598805142
1.1908807754516602,2.476089891921269
1.1931343078613281,2.4767091842543105
1.1953868865966797,2.461217935230486
1.1976399421691895,2.482711372698709
1.199892282485962,2.486369906231154
1.2021484375,2.487451134616272
1.2044050693511963,2.4856945855253443
1.2066600322723389,2.487640677409253
1.2089147567749023,2.4905481923279993
1.2111670970916748,2.495281397733855
1.213421106338501,2.4939402930665366
1.2156736850738525,2.4952116602911545
1.2179272174835205,2.496695816122987
1.220179796218872,2.497842013578655
1.2224328517913818,2.497643530087892
1.224687099456787,2.4963119621648744
1.2269396781921387,2.497692405902434
1.2291924953460693,2.50017493965327
1.2314441204071045,2.498864233358411
1.2337021827697754,2.491957246298462
1.2359559535980225,2.491894065367468
1.2382104396820068,2.494672238191633
1.2404634952545166,2.493429481199918
1.242729663848877,2.4922409644414145
1.2449836730957031,2.4921944728129475
1.2472364902496338,2.49325841584902
1.2494902610778809,2.4939659230668454
1.2517426013946533,2.4936243884115683
1.2539963722229004,2.4884036169533275
1.2562494277954102,2.4902865279062425
1.2585031986236572,2.4977788326476613
1.2607572078704834,2.4908581365177795
1.263010025024414,2.489449678593836
1.2652640342712402,2.4863246066957245
1.2675158977508545,2.488861380679772
1.2697699069976807,2.4856069666870795
1.2720234394073486,2.485375104591263
1.274278163909912,2.4832162241001394
1.2765328884124756,2.4852594715666143
1.2787864208221436,2.4861606939030523
1.2810404300689697,2.486637531118099
1.2832932472229004,2.4706938827864984
1.2855491638183594,2.4689778648588496
1.2878012657165527,2.4709662760455937
1.2900545597076416,2.4703428113869204
1.2923071384429932,2.472830113509907
1.2945621013641357,2.468550499504864
1.2968158721923828,2.471897300707972
1.2990682125091553,2.471313771166059
1.3013222217559814,2.4611392570900033
1.3035740852355957,2.4714663590748738
1.305828332901001,2.4732783404920506
1.3080806732177734,2.460978324529925
1.3103361129760742,2.4747952788824175
1.3125908374786377,2.4741807549215262
1.3148431777954102,2.471695240938096
1.3170971870422363,2.4740120737567035
1.319350242614746,2.461127336159627
1.3216042518615723,2.473289069329389
1.3238563537597656,2.4686554036921744
1.32611083984375,2.46119588150929
1.3283636569976807,2.471447285586272
1.330618143081665,2.473236617235734
1.332871913909912,2.4731352893275367
1.3351240158081055,2.473609146309989
1.3373773097991943,2.475778755638451
1.339629888534546,2.478127178922555
1.3418831825256348,2.4756434530786815
1.3441359996795654,2.4678042492633163
1.3463993072509766,2.4731013146759646
1.3486559391021729,2.473423179796121
1.35090970993042,2.4609836889485943
1.3531646728515625,2.471236285118614
1.3554179668426514,2.472824153044719
1.3576726913452148,2.4726012316466845
1.3599252700805664,2.4758478970346327
1.3621788024902344,2.4756750435441783
1.3644309043884277,2.4754783481929716
1.3666837215423584,2.4731025067690022
1.3689379692077637,2.4749758809776163
1.3711917400360107,2.4762865872724755
1.373448371887207,2.4723806944347255
1.375701904296875,2.4748668044646744
1.377960443496704,2.4219539668505154
1.380286455154419,2.383593008946539
1.3826210498809814,2.402368474288997
1.384892463684082,2.400197076820979
1.3871474266052246,2.3938616983725667
1.3894028663635254,2.4041685347757977
1.391655445098877,2.419570376821801
1.393909215927124,2.415314008630992
1.396162748336792,2.422017147781509
1.3984169960021973,2.428046158319254
1.4006710052490234,2.4343213360692664
1.402923822402954,2.4345973056074746
1.4051775932312012,2.440319352188033
1.4074296951293945,2.4433937601320457
1.4096829891204834,2.4504753888220057
1.411935567855835,2.454726988640665
1.4141895771026611,2.4551495856225
1.41644287109375,2.461019451739723
1.418717861175537,2.466093595754337
1.4209716320037842,2.469635304169095
1.4232239723205566,2.47388869212731
1.4254779815673828,2.4610480619726256
1.4277303218841553,2.48250573664972
1.4299840927124023,2.486506400883961
1.4322431087493896,2.4837937931768646
1.4345078468322754,2.4826726296749864
1.4367642402648926,2.4830630401448057
1.4390172958374023,2.487578688571297
1.441272258758545,2.488451300674832
1.4435248374938965,2.48443633132414
1.445786476135254,2.4869796618198947
1.4480407238006592,2.4904134858147486
1.4502959251403809,2.4927684656105598
1.4525501728057861,2.4941858642322856
1.4548027515411377,2.4954226607588126
1.4570562839508057,2.496766149612206
1.4593088626861572,2.499302923596254
1.4615631103515625,2.5006029010537745
1.4638161659240723,2.4982658026535276
1.4660701751708984,2.4992576240608244
1.468322992324829,2.5006803871012195
1.4705772399902344,2.5002667308171667
1.4728317260742188,2.5003257394225287
1.4750843048095703,2.498069107302321
1.4773385524749756,2.501402795482015
1.4795904159545898,2.5008204580331395
1.4818451404571533,2.5016382338569443
1.4840977191925049,2.498621642425256
1.4863519668579102,2.498693764054032
1.4886059761047363,2.4816253759414404
1.4908628463745117,2.472279962573047
1.49344801902771,2.4815127231493856
1.4958131313323975,2.483889160619874
1.4980697631835938,2.4856874329671186
1.5003252029418945,2.486267386229919
1.502579927444458,2.4856570345946594
1.504835605621338,2.4831792692159733
1.5070888996124268,2.4975916740407555
1.5093433856964111,2.485822735526888
1.5115954875946045,2.487790285085474
1.513850212097168,2.4829575399109767
1.5161035060882568,2.4865266664656005
1.518357276916504,2.486754952282304
1.5206191539764404,2.487935720436063
1.522873878479004,2.488479910907735
1.5251309871673584,2.4952426547101325
1.5273849964141846,2.489887176738641
1.529639482498169,2.4953326577344725
1.531893014907837,2.491575180479906
1.534146785736084,2.4853518587770296
1.536400556564331,2.488153873461947
1.5386552810668945,2.4870207890296925
1.5409109592437744,2.4877169713636604
1.5431642532348633,2.4782946679943403
1.5454316139221191,2.4804040766244024
1.547687292098999,2.481947241061597
1.5499424934387207,2.4825099089753517
1.5521960258483887,2.4951592081974994
1.5544531345367432,2.480926809421397
1.5567076206207275,2.483587561081357
1.5589599609375,2.482316789903258
1.5612144470214844,2.4848172050496586
1.5634675025939941,2.4789616440488866
1.5657222270965576,2.4807420350005667
1.567976474761963,2.479299602425051
1.57023024559021,2.475719747033089
1.572490930557251,2.4786081884632334
1.574744462966919,2.4749127000466227
1.5769977569580078,2.47777968380209
1.5792505741119385,2.4758729309884226
1.5815045833587646,2.4796947812670207
1.583756923675537,2.4609926296463764
1.5860121250152588,2.4794009303332483
1.5882651805877686,2.478264269621881
1.5905191898345947,2.4681618771746012
1.592773199081421,2.4655780155155678
1.5950260162353516,2.46110587848495
1.5972795486450195,2.4681958518261733
1.599532127380371,2.4659398157524843
1.6017868518829346,2.466680105528844
1.6040394306182861,2.462590630363301
1.6062941551208496,2.461217339183967
1.6085481643676758,2.461006934762828
1.6108012199401855,2.461083824763754
1.61305570602417,2.4693259560258336
1.615309715270996,2.4670448859983547
1.617567777633667,2.4600222659137567
1.6198625564575195,2.4563571758696052
1.6221683025360107,2.4289789711211887
1.6245181560516357,2.3986723898258675
1.6268494129180908,2.3941019051196464
1.6291353702545166,2.4061539657299478
1.6313896179199219,2.4114623560264534
1.6336486339569092,2.406395364570065
1.6359097957611084,2.4126246467381294
1.638166904449463,2.41953580612371
1.6404213905334473,2.4248656540948934
1.6426894664764404,2.428788832281689
1.644944667816162,2.4337771455975945
1.6471970081329346,2.4375936314575233
1.6494519710540771,2.4452647501545846
1.6517038345336914,2.4484255848438243
1.6539583206176758,2.4487301646149353
1.6562113761901855,2.4539628570035528
1.6584653854370117,2.4592402528810804
1.6607186794281006,2.4637415961911198
1.662970781326294,2.4674990734456865
1.6652264595031738,2.470570501157105
1.6674833297729492,2.472830113509907
1.6697413921356201,2.476699051463491
1.671994924545288,2.4776914689173064
1.6742494106292725,2.438834004263163
1.6765964031219482,2.3830851773125143
1.6789131164550781,2.351287287627135
1.6812489032745361,2.3162749190658234
1.6835711002349854,2.265821369388267
1.6859099864959717,2.299940860264404
1.6881725788116455,2.2951337450902156
1.690490961074829,2.2633906916845667
1.692842721939087,2.210803891516196
1.6951630115509033,2.177509925068608
1.697467565536499,2.155120629682616
1.6997559070587158,2.125224128392235
1.7020559310913086,2.1032800797557925
1.704331636428833,2.080688724599925
1.7066211700439453,2.065140255110294
1.7088992595672607,2.048775201889897
1.7112152576446533,2.038488631068305
1.7134897708892822,2.020021321776071
1.7157680988311768,2.011878134236113
1.7180538177490234,2.005980849979025
1.7203493118286133,2.005005121827736
1.7226836681365967,1.9923158874888287
1.7249586582183838,2.0082470188435337
1.7272143363952637,2.0433809808946823
1.7294695377349854,2.0509418309857645
1.73172926902771,2.08759273142728
1.7340223789215088,2.0911982168195506
1.7362847328186035,2.1334632794217203
1.738541841506958,2.1678527793708775
1.7407982349395752,2.187649868446573
1.7430517673492432,2.2266712458933884
1.7453603744506836,2.261966736551134
1.7476131916046143,2.293603693676435
1.7498679161071777,2.322916665424903
1.7521202564239502,2.3501613557531065
1.7543752193450928,2.372036262993367
1.7566306591033936,2.400895047294503
1.7588825225830078,2.4251505643308837
1.761136770248413,2.4514600576710768
1.7633891105651855,2.4731644956069583
1.7656424045562744,2.49662429054073
1.7678947448730469,2.515698375189111
1.7701497077941895,2.5345739763467283
1.7724015712738037,2.551107710731949
1.7746613025665283,2.5758466214950824
1.776916265487671,2.582045505290688
1.7791681289672852,2.578424522688928
1.7814226150512695,2.607577753970355
1.783674955368042,2.6207313085474144
1.7859299182891846,2.6321414270569594
1.788182258605957,2.6408049632078368
1.7904384136199951,2.6502993882059322
1.7926926612854004,2.6579764673681816
1.7949445247650146,2.6655581790874217
1.7971992492675781,2.656455356652183
1.7994518280029297,2.6763919206132796
1.8017058372497559,2.680054030424837
1.8039591312408447,2.675724944558733
1.8062129020690918,2.6802942371719167
1.8084650039672852,2.680697164618631
1.8107259273529053,2.6831844667416176
1.8129794597625732,2.6798156118173138
1.8152313232421875,2.676046213632371
1.8174848556518555,2.622429445079499
1.819786787033081,2.617218806412078
1.8220598697662354,2.619781806442953
1.8243131637573242,2.619504644811707
1.8265681266784668,2.620189502261818
1.828822135925293,2.6198581003973604
1.8310761451721191,2.618439509682597
1.8333330154418945,2.6057747132509603
1.8355989456176758,2.603149724382129
1.8378572463989258,2.600235652951676
1.8401100635528564,2.5985404966521854
1.8423652648925781,2.592946004026652
1.8446228504180908,2.586746524184528
1.8468773365020752,2.585170577188799
1.8491325378417969,2.5829634169296525
1.8513846397399902,2.5777193996571777
1.8536396026611328,2.574005433798484
1.8558926582336426,2.573461243326812
1.8581469058990479,2.566833802084184
1.8603990077972412,2.5642225222852852
1.8626537322998047,2.555535740320175
1.8649139404296875,2.5516739549248166
1.8671674728393555,2.5469878371939467
1.8694214820861816,2.544250791579579
1.8716742992401123,2.5395456003601073
1.8739283084869385,2.4931702009642365
1.876251459121704,2.4220541026656752
1.878587245941162,2.441711716855969
1.8808536529541016,2.4435684017620565
1.8831062316894531,2.4456790024851562
1.885362148284912,2.45627968982216
1.8876147270202637,2.4561163730760067
1.889869213104248,2.449321442761593
1.8921256065368652,2.44967311020769
1.894383192062378,2.4461939866774065
1.8966376781463623,2.4415430356911463
1.898890733718872,2.4281707320416848
1.901165246963501,2.338998596548867
1.9034206867218018,2.2950163239260104
1.9057002067565918,2.319044747238725
1.907956600189209,2.33047513132991
1.9102108478546143,2.3415687491379678
1.9124646186828613,2.3520663204272174
1.9147372245788574,2.3619928791514493
1.9169914722442627,2.3717406239200383
1.9192440509796143,2.3816051938063136
1.9215078353881836,2.390663312752642
1.9237608909606934,2.3948415988494873
1.926016092300415,2.404938030831579
1.9282686710357666,2.4156191844486217
1.9305222034454346,2.4233588484953463
1.9327757358551025,2.429586938570373
1.935027837753296,2.4352928918949237
1.9372811317443848,2.4430432847789865
1.9395334720611572,2.4496927797428105
1.9417877197265625,2.4561199493551196
1.9440412521362305,2.4631145552533336
1.9462952613830566,2.4699535930101386
1.9485507011413574,2.4610575987169265
1.9508092403411865,2.4826970675822575
1.9530627727508545,2.4848917108645097
1.9553155899047852,2.488677798351979
1.9575700759887695,2.49489873586878
1.959822177886963,2.499510347784799
1.9620757102966309,2.506408990193485
1.9643285274505615,2.4970951672905883
1.9666385650634766,2.4891468869622813
1.968904733657837,2.4933138481752692
1.9711594581604004,2.4952808016873362
1.9734148979187012,2.501486838041167
1.9756686687469482,2.503258288295065
1.9779236316680908,2.509283126507178
1.9801812171936035,2.510899008619667
1.9824349880218506,2.513180078647146
1.9846916198730469,2.5106623781517
1.9869437217712402,2.5152882951841704
1.9891979694366455,2.5162556786841965
1.9917552471160889,2.5215193654917916
1.994027853012085,2.515416445185714
1.9962828159332275,2.5199416303565063
1.9985389709472656,2.461050446158701
2.000814199447632,2.3830249766141147
2.0030860900878906,2.3414972235557108
2.005394458770752,2.306652344066184
2.007702112197876,2.317428865126236
2.0099751949310303,2.334915677895031
2.012230157852173,2.349857968075033
2.014503002166748,2.3554900116312516
2.0167629718780518,2.37341015021922
2.0190160274505615,2.3827954987043736
2.0212700366973877,2.396698283755575
2.0235230922698975,2.4040225033786897
2.02577805519104,2.4170640012102127
2.028031349182129,2.428064635761337
2.0302863121032715,2.440033249859005
2.032540798187256,2.449915105094326
2.0347936153411865,2.4506464541729036
2.0370595455169678,2.460934813134052
2.0393145084381104,2.4689373336955707
2.0415704250335693,2.4698451125437155
2.043929100036621,2.4739840595703195
2.0461959838867188,2.4844267945798393
2.048452138900757,2.4914482225713996
2.0507187843322754,2.5003907084930788
2.052973508834839,2.5028505924762
2.055227279663086,2.5098314893044815
2.057481527328491,2.500039041046982
2.059734582901001,2.5233587650488336
2.0619888305664062,2.5293192302369154
2.0642411708831787,2.5328114667906125
2.0664963722229004,2.5382021115067137
2.0687503814697266,2.540578548977202
2.07100248336792,2.5448438578657933
2.073262929916382,2.5426802090025196
2.0755157470703125,2.5466010030032398
2.0777699947357178,2.5472655948717113
2.0800225734710693,2.539270226868418
2.082277297973633,2.552337950746769
2.0845327377319336,2.53918916454186
2.086786985397339,2.5049492722689237
2.0891075134277344,2.4754109949363463
2.0914063453674316,2.4909016479136525
2.0936732292175293,2.49517887773262
2.09592604637146,2.5002327561655946
2.09818172454834,2.5048109894765602
2.1004345417022705,2.507778705093706
2.1026980876922607,2.5003007054687387
2.104954242706299,2.507748306721247
2.1072068214416504,2.5001266598852467
2.1094610691070557,2.513079942831986
2.1117165088653564,2.515106500995934
2.11397123336792,2.5132843867879373
2.1162240505218506,2.500025928023568
2.118528127670288,2.4897900211560753
2.1208274364471436,2.4910113204731132
2.1230881214141846,2.4851378780767774
2.1254053115844727,2.456087166796585
2.127720594406128,2.4489286481056984
2.130059003829956,2.4427291682635746
2.1323273181915283,2.451636487440644
2.1345882415771484,2.452168160935421
2.1368510723114014,2.4567040749435516
2.1391093730926514,2.4645665245731503
2.1413650512695312,2.467184360883756
2.143617630004883,2.470794018601658
2.1458775997161865,2.4750593274902495
2.1481308937072754,2.4804565287180576
2.1503849029541016,2.4837186913154947
2.152639627456665,2.4868312462367115
2.1548914909362793,2.488940058820255
2.1571459770202637,2.4937322728314726
2.159398078918457,2.4978122112527146
2.1616530418395996,2.500744760125251
2.1639058589935303,2.4983498452126796
2.1662158966064453,2.50347584527443
2.1684770584106445,2.4854949099415435
2.17073392868042,2.491400538849895
2.1729896068573,2.490794955586786
2.1752431392669678,2.490935026518706
2.1774981021881104,2.496266066582926
2.1797518730163574,2.498398124980703
2.182006359100342,2.502410114098801
2.1842596530914307,2.501987517116966
2.1865131855010986,2.5037762527199092
2.188767671585083,2.5063207753087013
2.1910197734832764,2.5000777840707045
2.19327449798584,2.5056305534399215
2.1955339908599854,2.5072345146220343
2.19779372215271,2.509345115345134
2.2000463008880615,2.5088408599902223
2.202301025390625,2.510938943736427
2.2045557498931885,2.5060555346078317
2.206808567047119,2.507859767420264
2.2090630531311035,2.50799685811959
2.2113161087036133,2.5106921804776405
2.2135701179504395,2.5104781997773884
2.21582293510437,2.5121310367740435
2.2180769443511963,2.5119754686326345
2.220329523086548,2.5113162411828327
2.222583770751953,2.509108484877167
2.224846601486206,2.5056394941377036
2.2270987033843994,2.5000783801172233
2.2293527126312256,2.506029308561004
2.231605291366577,2.507751286953841
2.233858585357666,2.497659027297381
2.2361183166503906,2.495117484941183
2.238377809524536,2.4952617281987344
2.240633249282837,2.4978038666014513
2.2428860664367676,2.494243084698091
2.2451400756835938,2.4977228042748933
2.247394323348999,2.492866813286163
2.249648094177246,2.493099867475017
2.2519004344940186,2.493062316544332
2.2541539669036865,2.4835672954997174
2.25640869140625,2.4873748406618645
2.2586631774902344,2.4841883759723156
2.2609171867370605,2.486704884374724
2.263169765472412,2.4978277084622036
2.2654237747192383,2.484314141787784
2.26767635345459,2.4835261682899197
2.269930362701416,2.483404574800083
2.2721829414367676,2.4821475126919164
2.2744369506835938,2.4823269226940776
2.276690721511841,2.4832198003792523
2.278942346572876,2.4833926538697066
2.281196355819702,2.4831965545650188
2.283449411392212,2.4787905786979887
2.285705089569092,2.479721603360367
2.287956476211548,2.478485402880359
2.290210008621216,2.4801239347605626
2.2924625873565674,2.479808626152113
2.2947239875793457,2.47818976380703
2.296977996826172,2.461022431972317
2.2992308139801025,2.481157479424176
2.3014848232269287,2.481231985239027
2.3037374019622803,2.4803659296471987
2.3059921264648438,2.481222448494726
2.308244466781616,2.4792292689358315
2.3104987144470215,2.4818339922230233
2.3127527236938477,2.4778559777564975
2.3150062561035156,2.4780181024096133
2.317260503768921,2.4770596596073697
2.3195128440856934,2.461158330578605
2.3217673301696777,2.476120886340247
2.3240225315093994,2.4735614625884845
2.3262784481048584,2.4749627679542026
2.328533172607422,2.4773332449595027
2.330784797668457,2.477080521235528
2.333038330078125,2.475707826102713
2.335289478302002,2.4774172875186546
2.3375422954559326,2.4774077507743537
2.3397934436798096,2.478323278227243
2.3420464992523193,2.4772623154237645
2.3442978858947754,2.478233871249422
2.346599578857422,2.4746987193463705
2.348860263824463,2.4731448260718376
2.351114511489868,2.473289665375908
2.3533689975738525,2.4696782195184492
2.355621099472046,2.470156844873052
2.3578736782073975,2.4718400802421665
2.3601255416870117,2.4734124509587825
2.3623783588409424,2.474620041205888
2.364631175994873,2.4756720633115843
2.366886615753174,2.4763587089012513
2.3691422939300537,2.477109131468431
2.371394634246826,2.476700839603047
2.373647451400757,2.473587688635312
2.37589955329895,2.447509461344416
2.3782331943511963,2.3794177030822876
2.380589723587036,2.395764874907121
2.382852792739868,2.399496722161379
2.3851122856140137,2.40097670566758
2.3873658180236816,2.4081411848236542
2.389619827270508,2.413607527447644
2.3918709754943848,2.4186310075081594
2.3941240310668945,2.4241325168767593
2.3963756561279297,2.4291536127511995
2.3986284732818604,2.421995094060313
2.4008822441101074,2.4409398366141124
2.4031336307525635,2.443371110364331
2.4053869247436523,2.445984178302786
2.4076383113861084,2.4561694212161806
2.409893751144409,2.4573412486721575
2.4121453762054443,2.463952596658778
2.4143991470336914,2.4625828817585567
2.416651964187622,2.4688264690430723
2.4189035892486572,2.475744780986879
2.421156406402588,2.475580272147688
2.423407554626465,2.478475866136058
2.4256601333618164,2.4807617045356873
2.4279117584228516,2.485602794361448
2.430164337158203,2.4880889043913967
2.432415723800659,2.4915048469906864
2.43466854095459,2.481881079898009
2.4369282722473145,2.4865797146057744
2.439180850982666,2.487485109267844
2.441434621810913,2.490925489774405
2.4436862468719482,2.484137115971698
2.445949077606201,2.487944661133845
2.4482011795043945,2.49767452450687
2.4507803916931152,2.4220588710378257
2.4531044960021973,2.3759093732725827
2.455422878265381,2.3318615355326577
2.4578158855438232,2.296105300915873
2.460148334503174,2.3082288871084318
2.462411880493164,2.3253103882444366
2.464667797088623,2.3389878677115283
2.4669196605682373,2.353341263930948
2.469174385070801,2.36540822570422
2.471425771713257,2.3779085132966653
2.4736790657043457,2.3830810049868827
2.4759304523468018,2.401805806375242
2.4781837463378906,2.4146589535068217
2.4804351329803467,2.4263825924852602
2.482701539993286,2.436780624005869
2.484955310821533,2.4482384262369186
2.4872074127197266,2.4574282714639035
2.48946213722229,2.4667283852968676
2.491713285446167,2.4769517751874655
2.494278907775879,2.4901589739512175
2.4965503215789795,2.499361932201616
2.4988038539886475,2.508774102780116
2.5010597705841064,2.515831889609324
2.5033118724823,2.5211527968827245
2.5055654048919678,2.5279238853363855
2.507817506790161,2.5368639870719893
2.510070562362671,2.540947501772344
2.512322425842285,2.54522055926568
2.5145750045776367,2.5487443862848744
2.5168280601501465,2.553307122386351
2.5190789699554443,2.539214794542169
2.5213329792022705,2.5578698584878277
2.523585081100464,2.560162253399164
2.5258381366729736,2.562178082725773
2.528090000152588,2.564776249501258
2.5303428173065186,2.5658413846303683
2.532597303390503,2.567949005120874
2.534849166870117,2.5689604960632915
2.537102222442627,2.568495579778621
2.539353132247925,2.568092056285388
2.5416059494018555,2.5758025140526906
2.5438578128814697,2.5588992308258094
2.5461230278015137,2.5613311006225468
2.5483760833740234,2.558841414313485
2.5506298542022705,2.5593766640873747
2.5528833866119385,2.5572672554573126
2.5551347732543945,2.539192144774454
2.5573880672454834,2.5561800666070065
2.5596401691436768,2.5491198955917236
2.5618934631347656,2.539071743377655
2.5641446113586426,2.5452062541492286
2.566397190093994,2.542867963655944
2.5686514377593994,2.540030782226417
2.5709030628204346,2.538083498249471
2.5731563568115234,2.5363889379964992
2.5754082202911377,2.5339362065716036
2.5776610374450684,2.5334170500537216
2.5799121856689453,2.5342592637847976
2.5821659564971924,2.519830169657489
2.5844171047210693,2.5197240733771413
2.5866711139678955,2.522716822948077
2.588923931121826,2.5207522536220854
2.5911755561828613,2.5181487224279313
2.593428611755371,2.516751589387845
2.595679521560669,2.514801325178304
2.5979323387145996,2.5116494311868465
2.600184202194214,2.510834039549117
2.6024367809295654,2.507334650437194
2.604689836502075,2.50489622412875
2.606940746307373,2.502589524100962
2.6091935634613037,2.500458657796223
2.6114444732666016,2.499659359414501
2.613698720932007,2.498425543120568
2.615950107574463,2.496120035185818
2.6182029247283936,2.4887242899804463
2.6205191612243652,2.4613180710456457
2.622821569442749,2.4484941301934873
2.625147819519043,2.408132840172391
2.6274616718292236,2.393627452090675
2.629777193069458,2.4196711086834797
2.632035493850708,2.4097344171684285
2.634288787841797,2.4093332778612706
2.6365489959716797,2.411068369277521
2.6388027667999268,2.4171337386529133
2.6410601139068604,2.420226624039009
2.6433122158050537,2.422058274991307
2.645566940307617,2.427445343428295
2.647818088531494,2.431631378129885
2.650071144104004,2.436721019353988
2.65232253074646,2.440278821024754
2.6545753479003906,2.4437424473455485
2.6568310260772705,2.4473151501792847
2.659083366394043,2.4562904186594987
2.661336660385132,2.4553683346949025
2.6635875701904297,2.4601402831244807
2.6658408641815186,2.4641898231732635
2.6680965423583984,2.464142139451759
2.6703524589538574,2.4611380649969656
2.672605276107788,2.4709203804636455
2.6748571395874023,2.4729582635114506
2.677109956741333,2.476610836578707
2.679361581802368,2.479162511725725
2.681614637374878,2.4819132664100247
2.683865785598755,2.4843135457412653
2.6861190795898438,2.484987078307519
2.688370704650879,2.486648856001956
2.6906235218048096,2.4891033755664083
2.6928765773773193,2.497596442412906
2.6951286792755127,2.492634355143828
2.6973822116851807,2.4943354719085065
2.6996335983276367,2.496654688913189
2.7018861770629883,2.49754935473792
2.7041382789611816,2.4987938998691916
2.706390857696533,2.499237358479185
2.708644390106201,2.499933540813153
2.710895538330078,2.5016102196705603
2.713148593902588,2.5027593973588225
2.715399980545044,2.500016987325786
2.717653274536133,2.500148117559924
2.719905138015747,2.50463098342788
2.7221579551696777,2.5048068171509286
2.724409580230713,2.5045588617991044
2.7266623973846436,2.5053408748317807
2.7289159297943115,2.5065383322880663
2.731167793273926,2.5002732873288736
2.733426332473755,2.5000688433729223
2.735677719116211,2.506237328796068
2.7379305362701416,2.5057986385582254
2.740182638168335,2.505203784132455
2.7424356937408447,2.5041303043520813
2.744687795639038,2.5052568322726287
2.7469396591186523,2.5052395469235833
2.749192476272583,2.505622804835177
2.751443386077881,2.5053408748317807
2.7536964416503906,2.5002446770959708
2.7559478282928467,2.5035426024845364
2.7582004070281982,2.5027808550334996
2.760451316833496,2.5031420592238973
2.7627112865448,2.5026383999155044
2.7649643421173096,2.502136528746668
2.7672159671783447,2.5017467143233674
2.7694685459136963,2.4989154933590285
2.7717199325561523,2.497727572647044
2.773973226547241,2.496033012394072
2.7762253284454346,2.4964335556547113
2.7784788608551025,2.4966499205410386
2.780733108520508,2.4961093063484796
2.7829842567443848,2.4951127165690323
2.7852370738983154,2.4945899837720376
2.787489175796509,2.4951246374994085
2.7897424697875977,2.4910017837288123
2.7919936180114746,2.497771084042917
2.7942469120025635,2.4896243202238466
2.7965078353881836,2.4886897192823554
2.798760175704956,2.4895384895251382
2.8010129928588867,2.4875512704314318
2.8032643795013428,2.4858716113414303
2.8055169582366943,2.484596071791181
2.807767868041992,2.484495935976021
2.810020685195923,2.4836817364313286
2.8122713565826416,2.483648953872794
2.8145244121551514,2.4831566194482586
2.816777467727661,2.482918796887254
2.819028854370117,2.482452688509546
2.8212811946868896,2.4805650091844806
2.8235325813293457,2.480035719875779
2.8257858753204346,2.4810162163992184
2.8280375003814697,2.4814131833807447
2.8302907943725586,2.4808946229093816
2.832543134689331,2.4952700728499977
2.834794759750366,2.4772813889123664
2.837050676345825,2.475480136332528
2.8393030166625977,2.4756625265672834
2.8415565490722656,2.4611970736023276
2.843808650970459,2.4733355609578562
2.8460628986358643,2.472820576765606
2.848314046859741,2.4734309284008655
2.85056734085083,2.4730679360709114
2.8528196811676025,2.4728807774640056
2.8550713062286377,2.472177442571812
2.8573241233825684,2.4717333879153
2.8595759868621826,2.4720755186170957
2.8618292808532715,2.473411258865745
2.8640809059143066,2.473522719564762
2.8663341999053955,2.4746611684156856
2.8685879707336426,2.4737319318928637
2.8708395957946777,2.4732783404920506
2.8730928897857666,2.4612316443004185
2.8754305839538574,2.3830571631261304
2.877772808074951,2.383048818474867
2.8800368309020996,2.400159525890294
2.8822925090789795,2.4029013398768115
2.884549617767334,2.408285428081206
2.8868017196655273,2.4135044113998902
2.889055013656616,2.4164500732958403
2.8913068771362305,2.420950224512842
2.893559694290161,2.421933105222357
2.8958122730255127,2.432852677446923
2.8980658054351807,2.4379339740197628
2.9003169536590576,2.4421694805824137
2.9025704860687256,2.446699434125356
2.90482497215271,2.450893813478209
2.907075881958008,2.4560055084235084
2.9093284606933594,2.460018093588125
2.9115796089172363,2.4648955422515324
2.9138336181640625,2.4688449464851554
2.9160854816436768,2.4736478893337117
2.9183380603790283,2.4610367370887682
2.920591354370117,2.480638918952813
2.922842264175415,2.48303085363279
2.9250950813293457,2.4830922464242273
2.9273488521575928,2.4873164281030213
2.929602861404419,2.4905970681425416
2.931854486465454,2.494190632604436
2.9341070652008057,2.4957963819261053
2.9363584518432617,2.497633993343591
2.9386117458343506,2.4992331861535533
2.9408645629882812,2.4868777378651785
2.9431416988372803,2.492947279566202
2.945403814315796,2.4957498902976383
2.9476568698883057,2.498047053581125
2.94991135597229,2.5004759431452683
2.952162742614746,2.501675784787629
2.9544148445129395,2.5020506980479595
2.956667423248291,2.5034025315526165
2.9589195251464844,2.5047162180800697
2.9611728191375732,2.507452667647918
2.963440179824829,2.508528531614367
2.9656929969787598,2.4850466829594
2.9679975509643555,2.4696704709137047
2.9702975749969482,2.461214954997892
2.9725611209869385,2.4785640810208416
2.9748141765594482,2.461149389880823
2.97706937789917,2.4835112671269495
2.9793214797973633,2.4953797454094584
2.981574773788452,2.4806353426737
2.9838271141052246,2.4976071712502446
2.986081123352051,2.4919232716468898
2.988332509994507,2.4942895763265582
2.9905853271484375,2.494231759814234
2.9931626319885254,2.4993136524335924
2.995431661605835,2.4999812245346575
2.9976940155029297,2.5015100838554005
2.9999465942382812,2.5024417045642977
3.002200126647949,2.5023421647956567
3.0044524669647217,2.5030329827109554
3.0067152976989746,2.5042095785390828
3.00896954536438,2.5047072773822876
3.011220932006836,2.506203354144496
3.013474702835083,2.507303656018216
3.015726327896118,2.5081971297499095
3.017979383468628,2.5087317834772804
3.020231246948242,2.508830131152884
3.0224835872650146,2.5074580320665874
3.02473783493042,2.504538596217465
3.026989221572876,2.5000312924422374
3.0292441844940186,2.5001683831415633
3.031496286392212,2.506704629266814
3.0337493419647217,2.505858839256625
3.036003828048706,2.497864067299851
3.0382578372955322,2.4999788403485823
3.040520668029785,2.4984332917253127
3.042772054672241,2.491266428383163
3.045034408569336,2.4923613658382138
3.0472872257232666,2.4931243053822882
3.0495412349700928,2.49303847468358
3.0517921447753906,2.4930730453816707
3.0540459156036377,2.497636377529666
3.056297779083252,2.497748434275202
3.0585508346557617,2.4923273911866417
3.0608036518096924,2.4928286663089594
3.0630550384521484,2.49766439171605
3.0653076171875,2.494659721214738
3.0675601959228516,2.494672238191633
3.0698130130767822,2.493401467013534
3.072063684463501,2.49232321886101
3.07431697845459,2.4917563786216235
3.0765693187713623,2.4925139537470287
3.0788211822509766,2.49278336677353
3.0810739994049072,2.4977317449726755
3.0833258628845215,2.4952581519196215
3.0855796337127686,2.491177021405342
3.0878307819366455,2.497848570090362
3.090083360671997,2.4902251351148053
3.092334747314453,2.4897548544114656
3.0945868492126465,2.4896582948754187
3.0968399047851562,2.4901339399974276
3.0990912914276123,2.490008770228478
3.101344585418701,2.4904200423264555
3.1035962104797363,2.489818631388978
3.1058497428894043,2.4951812619186953
3.1081011295318604,2.4874892815934757
3.11035418510437,2.4884816990472913
3.112607479095459,2.489401994872331
3.114859104156494,2.4896147834795457
3.117111921310425,2.4719145860570175
3.1194119453430176,2.4558874912127844
3.1217098236083984,2.462302739894717
3.1239676475524902,2.4298611199690248
3.1262881755828857,2.417168309351004
3.1285886764526367,2.4072232731846896
3.1308910846710205,2.4116518988194344
3.1331627368927,2.417215993072509
3.1354148387908936,2.421863367779656
3.1376683712005615,2.4245265036256916
3.139923572540283,2.429938009969951
3.1421780586242676,2.434540085141669
3.1444294452667236,2.439965300555861
3.1467113494873047,2.444992356895489
3.1489646434783936,2.4414649535971824
3.1512160301208496,2.4537953679317677
3.153470754623413,2.4563369102879657
3.1557228565216064,2.4610385252283247
3.1579766273498535,2.460959847087842
3.1602282524108887,2.4688723646250206
3.1624815464019775,2.475778755638451
3.164734363555908,2.4771252247244386
3.1669886112213135,2.475726303544796
3.169250011444092,2.480477390346216
3.171502113342285,2.4807742215125823
3.1737568378448486,2.4839773755046575
3.176008701324463,2.4871602639150936
3.178262710571289,2.497679888925539
3.1805171966552734,2.4941304319060364
3.1827688217163086,2.4973246452003295
3.1850221157073975,2.498457729632584
3.1872737407684326,2.4995425342968147
3.1895265579223633,2.5002214312817372
3.191777467727661,2.503189146898883
3.194030523300171,2.505063117154016
3.196281909942627,2.5068989404319453
3.1985349655151367,2.5069639095024954
3.2007882595062256,2.5091293465053255
3.203040838241577,2.508829535106365
3.2052934169769287,2.509932817212679
3.207545280456543,2.5095734011618376
3.2097983360290527,2.5115504874647243
3.2120487689971924,2.512101830494622
3.2143020629882812,2.5122091188680074
3.216554880142212,2.5125125065460807
3.218806266784668,2.5115683688602886
3.2210593223571777,2.511143983738897
3.223310708999634,2.5002828240731745
3.2255642414093018,2.5097718846526007
3.227816343307495,2.509407700229609
3.2300682067871094,2.508990467666443
3.2323193550109863,2.5084981332419076
3.234572172164917,2.505893409954716
3.236830472946167,2.502176463863428
3.2390835285186768,2.5025942924731126
3.241337776184082,2.500243485002933
3.24358868598938,2.5009593368720218
3.2458417415618896,2.5002637505845726
3.248093843460083,2.5001898408162404
3.250347375869751,2.500091493140637
3.252600908279419,2.5002083182583235
3.2548530101776123,2.5013455750162095
3.257106065750122,2.5000002980232594
3.259357452392578,2.5005879998908043
3.261610746383667,2.5006702543104
3.263861894607544,2.500909268964442
3.2661147117614746,2.5005599857044203
3.2683656215667725,2.4978247282296095
3.2706186771392822,2.497805058694489
3.272871971130371,2.4970915910114755
3.2751238346099854,2.4960288400684405
3.2773776054382324,2.496564685888849
3.2796294689178467,2.496260106117738
3.2818820476531982,2.4955442542486495
3.2841334342956543,2.4975863096220863
3.2863876819610596,2.494802772379252
3.2886407375335693,2.49517887773262
3.2908918857574463,2.492450772816035
3.293144941329956,2.490907012332322
3.295396089553833,2.4953076237806826
3.297649383544922,2.495259940059178
3.299900531768799,2.4905654776770447
3.3021533489227295,2.488604484630166
3.3044044971466064,2.4977943298571503
3.306657314300537,2.487793265318068
3.308910369873047,2.4869212492610515
3.311161518096924,2.4869397267031346
3.3134145736694336,2.4876180276415383
3.3156654834747314,2.488035856251223
3.3179187774658203,2.4869182690284575
3.3201701641082764,2.485558686919056
3.322422981262207,2.495246827035764
3.3246753215789795,2.484731970397469
3.3269267082214355,2.4853923899403085
3.329179525375366,2.4853703362191126
3.3314309120178223,2.484987674354038
3.333683729171753,2.485568223663357
3.335935115814209,2.484418449928576
3.3381881713867188,2.4834832529405655
3.340439558029175,2.4807557440704993
3.342700481414795,2.48382597968888
3.3449528217315674,2.4951991433142595
3.3472039699554443,2.4847313743509503
3.349463701248169,2.4845293145810743
3.351717233657837,2.480508384765194
3.353971242904663,2.4839594941090932
3.3562235832214355,2.483460603172851
3.3584773540496826,2.483053503400505
3.3607325553894043,2.484211621786549
3.3629841804504395,2.4841764550419394
3.36523699760437,2.48413115550651
3.3674890995025635,2.4977996942758196
3.3697421550750732,2.4843439441137245
3.3719944953918457,2.4851897341239138
3.3742477893829346,2.475697693311893
3.376580238342285,2.389500425994447
3.378911256790161,2.398857760293217
3.38118839263916,2.4070432671360096
3.383443593978882,2.412290860687597
3.385697364807129,2.4171492358624023
3.3879497051239014,2.421618988706945
3.390202760696411,2.426013043643599
3.39245343208313,2.422107150805849
3.3947954177856445,2.435310773290488
3.3970491886138916,2.439375214502241
3.3993000984191895,2.44518189968847
3.4015541076660156,2.456121141448157
3.40381121635437,2.4562606163335583
3.406071901321411,2.4568590470384417
3.408323287963867,2.460245187311791
3.4105756282806396,2.4650719720210996
3.4128289222717285,2.4688723646250206
3.4150807857513428,2.4731698600256276
3.4173336029052734,2.4773058268196375
3.4195849895477295,2.4802610254598885
3.4218380451202393,2.482748327582875
3.424089193344116,2.484970985051511
3.426342010498047,2.488268910440077
3.4285948276519775,2.491624056294448
3.4308459758758545,2.4946591251682193
3.433098554611206,2.4981006977678177
3.435349941253662,2.4913671602448417
3.4376118183135986,2.4922755351395054
3.4398646354675293,2.4926885953770395
3.442117929458618,2.494812309123553
3.444369077682495,2.497851550322956
3.4466233253479004,2.496503293097412
3.448878765106201,2.4986079333553235
3.4511303901672363,2.499531805459476
3.4533839225769043,2.500906288731848
3.4556350708007812,2.5021782520029845
3.457887887954712,2.500044405465651
3.460139274597168,2.5055530673924764
3.462392568588257,2.50724166718026
3.4646453857421875,2.5081512341679613
3.4668970108032227,2.5081387171910663
3.469151020050049,2.508493364869757
3.471402168273926,2.5000992417453816
3.4736545085906982,2.5001707673276385
3.4759063720703125,2.5085952888244734
3.4781596660614014,2.5088503967345233
3.4804110527038574,2.5085422406842994
3.482664108276367,2.5101944816344357
3.484917640686035,2.5100711000050424
3.487168788909912,2.504043877606854
3.489421844482422,2.4806866026743175
3.4916739463806152,2.475757297963774
3.4942269325256348,2.46620207622076
3.4965028762817383,2.458716327991048
3.498755931854248,2.4465635355190676
3.5010104179382324,2.4369862600548577
3.5032622814178467,2.428471735533683
3.5055160522460938,2.420329144040244
3.507767677307129,2.412740875809297
3.5100204944610596,2.405894685494266
3.5122718811035156,2.401199627065614
3.5145251750946045,2.395876931652657
3.5167784690856934,2.391726659742196
3.5190300941467285,2.3829975584742495
3.521284580230713,2.382436678700051
3.5235354900360107,2.3803779340240876
3.525789260864258,2.380438730769006
3.5280401706695557,2.3753979653594453
3.5302927494049072,2.374019309761442
3.532546281814575,2.3741981237170844
3.5347979068756104,2.3724272695097053
3.537051200866699,2.3707243646054703
3.539302110671997,2.3704531634394126
3.5415549278259277,2.370682045302635
3.543806314468384,2.3620506956637737
3.546070098876953,2.3660853345495862
3.548322916030884,2.368330045739418
3.55057692527771,2.370017453434164
3.5528297424316406,2.3781308386481808
3.555081367492676,2.3748227804687954
3.5573344230651855,2.376700327003041
3.5595855712890625,2.3795178388974474
3.5618388652801514,2.384195611977054
3.5640900135040283,2.387085245500236
3.566342830657959,2.39206461811836
3.568596124649048,2.3947200053596505
3.5708470344543457,2.3829015949847214
3.5731003284454346,2.42135136382
3.5753519535064697,2.437267594011735
3.5776050090789795,2.452724272337469
3.5798561573028564,2.4672350248378545
3.582109212875366,2.4805846787196013
3.5843608379364014,2.492807804680801
3.5866141319274902,2.5037220124866977
3.5888671875,2.4631544903700937
3.5911900997161865,2.449436479739723
3.5935070514678955,2.4727812376953646
3.5957672595977783,2.480709252442032
3.5980224609375,2.497115432872228
3.6002748012542725,2.5002357363981886
3.6025290489196777,2.519861164076467
3.604782819747925,2.4859556539005823
3.607090950012207,2.473439273052129
3.609434127807617,2.4918797602510168
3.6116912364959717,2.5040492420255234
3.6139471530914307,2.500153481978593
3.616199493408203,2.5266936453215654
3.618452787399292,2.5254061848409397
3.620750904083252,2.5111213339711824
3.623082160949707,2.4610879970893857
3.625425338745117,2.422834923605314
3.6277873516082764,2.339060585386823
3.6301684379577637,2.2820517160954137
3.6325595378875732,2.2543242280869755
3.634927272796631,2.242405681896887
3.6372592449188232,2.2749462455447014
3.639521360397339,2.300341403525043
3.6417789459228516,2.325277605685902
3.644031524658203,2.3507544220393206
3.6462864875793457,2.373294517194571
3.6485648155212402,2.3830535868470175
3.6508171558380127,2.4139937655918318
3.6530709266662598,2.434683136306183
3.6553263664245605,2.397747325628677
3.6576733589172363,2.3758569211789275
3.6600005626678467,2.4051824099042904
3.662277936935425,2.4149849909526098
3.6646108627319336,2.356100363266511
3.6669321060180664,2.3858007652522044
3.6692280769348145,2.4110206855560166
3.6714847087860107,2.3899516332091846
3.6738193035125732,2.352304142988222
3.6761441230773926,2.382949278706226
3.678422689437866,2.4206313396252797
3.680678367614746,2.444225245025783
3.682929754257202,2.461034352902693
3.685182809829712,2.489738761155458
3.687434434890747,2.5109967602487515
3.6896870136260986,2.530765239091544
3.691939353942871,2.548134034649615
3.694192409515381,2.5668189009212137
3.696444034576416,2.5830444792562104
3.6987059116363525,2.5930830947259778
3.7009670734405518,2.599374961778517
3.7032196521759033,2.6125207677508318
3.7054755687713623,2.6243999748706788
3.7077274322509766,2.6335862438185504
3.7099807262420654,2.6453021341922445
3.7122323513031006,2.65458138639705
3.7144854068756104,2.661539633457617
3.7167458534240723,2.6498326837817054
3.7190608978271484,2.630924896112072
3.7213709354400635,2.6173910638560134
3.723630905151367,2.64261873276457
3.7258870601654053,2.648563104696644
3.7281389236450195,2.653801757550449
3.7303924560546875,2.6579299757397146
3.7326459884643555,2.6621750190466664
3.734898567199707,2.663708050693041
3.7371513843536377,2.6642134981409904
3.7394027709960938,2.670908292640244
3.741658926010132,2.665131409779955
3.7439112663269043,2.666616757704825
3.746164560317993,2.6658442814164496
3.7484166622161865,2.656291443859511
3.7506704330444336,2.6632651881295666
3.7529237270355225,2.660159785766576
3.755174398422241,2.656303960836406
3.757427215576172,2.6533648554521627
3.759678840637207,2.6498297035491114
3.761932611465454,2.6455357844276173
3.76418399810791,2.6370075508365094
3.766437292098999,2.637708501542628
3.768690586090088,2.629497960746045
3.7709436416625977,2.6251426488331138
3.773197889328003,2.6205447459870275
3.7754504680633545,2.612349106353415
3.7777037620544434,2.6149663466175017
3.7799553871154785,2.606048894649612
3.7822091579437256,2.600959849472028
3.7844605445861816,2.589397739100187
3.7867250442504883,2.581461379702256
3.7889795303344727,2.577003547788089
3.791231393814087,2.571106263531001
3.7934842109680176,2.5663569648691373
3.7957358360290527,2.5610765887590157
3.7979888916015625,2.556591338704984
3.800241231918335,2.5502333104888573
3.8024940490722656,2.543794219946172
3.8047475814819336,2.537670438011937
3.8069984912872314,2.536672656139452
3.809251070022583,2.536883060560591
3.81150221824646,2.5344607275081548
3.8137547969818115,2.519790234540729
3.816006660461426,2.516915502180517
3.8182590007781982,2.510783971641537
3.8205177783966064,2.500266134770648
3.8227694034576416,2.5029578808495856
3.8250229358673096,2.4980238077668915
3.8272745609283447,2.4949046963339683
3.8295302391052246,2.4922880521164004
3.83178448677063,2.4894717323150317
3.8340377807617188,2.4805679894170747
3.836289405822754,2.4784091089259515
3.8385491371154785,2.47420876910791
3.840803623199463,2.4706104362738652
3.843055248260498,2.469470795329904
3.845309019088745,2.4610456777865504
3.847561836242676,2.463908489216386
3.8498151302337646,2.464157636661248
3.8520667552948,2.4611112429036193
3.8543200492858887,2.4599024605634763
3.8565731048583984,2.4587795089220417
3.8588244915008545,2.458038623099163
3.8610782623291016,2.4585875819429854
3.8633298873901367,2.457654173094532
3.8655834197998047,2.458281214032318
3.8678348064422607,2.4572136947171326
3.870088577270508,2.4572923728576153
3.8723416328430176,2.4598148417252115
3.8745949268341064,2.451629930928937
3.876901149749756,2.3733368364974066
3.8792331218719482,2.313797153687138
3.8815739154815674,2.3354986113904252
3.883836030960083,2.34404830265621
3.8860926628112793,2.3512270869287355
3.88834547996521,2.359524054470546
3.890599250793457,2.377987191437148
3.892852544784546,2.3763879986271856
3.89510440826416,2.3855236036209586
3.8973591327667236,2.382825301030314
3.899611711502075,2.4012830735782473
3.901864767074585,2.407474208769108
3.904115676879883,2.419729521242323
3.9063684940338135,2.4222776201102283
3.9086222648620605,2.4286380325124304
3.9108729362487793,2.436926059356458
3.913125991821289,2.4439963631625607
3.9153778553009033,2.4560895509826604
3.9176387786865234,2.4588087152014633
3.9198904037475586,2.4650576669046482
3.9221441745758057,2.461142833369116
3.9243955612182617,2.4760940642469005
3.9266488552093506,2.4832597354960124
3.9289019107818604,2.497792541717594
3.9311535358428955,2.4943760030717854
3.9334073066711426,2.500461638028817
3.935659408569336,2.50344067852982
3.9379124641418457,2.500262558491535
3.9401636123657227,2.5110581530401888
3.942417860031128,2.515106500995934
3.9446702003479004,2.519722285237585
3.9469220638275146,2.5223919775953267
3.9491758346557617,2.5342354219240453
3.951427936553955,2.52770155998487
3.9536802768707275,2.52925187698029
3.9559314250946045,2.531864944918745
3.9581849575042725,2.5338652770358654
3.9604368209838867,2.5371334000984906
3.9626970291137695,2.5394293712889398
3.9649503231048584,2.5376799747562377
3.967283010482788,2.5162300486838878
3.9695701599121094,2.5217035438661033
3.9718246459960938,2.519681158027787
3.974079132080078,2.5233367113276377
3.976339340209961,2.523481550631708
3.978593587875366,2.525697055542118
3.980847120285034,2.5367793484663186
3.9830992221832275,2.5265505941570514
3.9853527545928955,2.5244405894804705
3.987605333328247,2.524851861578448
3.9898581504821777,2.5236514238895684
3.992109537124634,2.5343552272743257
3.9943630695343018,2.525392475771007
3.9969136714935303,2.52648622113302
3.9991822242736816,2.519560756630988
4.001436948776245,2.5254914194931293
4.0036890506744385,2.522583904574383
4.0059428215026855,2.534416024019244
4.0081946849823,2.521496119677558
4.010448694229126,2.5217488434015327
4.012702226638794,2.520085873614058
4.014954090118408,2.519321145930427
4.017206907272339,2.518441381268666
4.019458293914795,2.516888680087171
4.021712779998779,2.5145140307562386
4.023964166641235,2.512766422363093
4.026216745376587,2.511799634909586
4.028467416763306,2.5112918032755616
4.030727386474609,2.5111773623439504
4.032980442047119,2.5106713188494822
4.0352325439453125,2.5075468429978898
4.037486553192139,2.497770487996398
4.03974175453186,2.4986174700996244
4.041996717453003,2.4981692431174807
4.044248104095459,2.4983063338168066
4.046501398086548,2.4877998218297748
4.048768520355225,2.489831744412392
4.051022529602051,2.48840242486029
4.053276538848877,2.486465869720682
4.05552864074707,2.485952673667988
4.057782173156738,2.4847683292351164
4.060033321380615,2.4954131240145117
4.062287092208862,2.4865737541405863
4.064540386199951,2.486686406932641
4.066791772842407,2.486310897625792
4.069045066833496,2.4857059104092016
4.07129693031311,2.485605178547523
4.073549747467041,2.4852147680777037
4.075800657272339,2.495160996337056
4.078053951263428,2.4856755120367424
4.0803046226501465,2.4850466829594
4.082557916641235,2.4851968866821394
4.084811687469482,2.4845781903956166
4.08706259727478,2.483966646667319
4.089315891265869,2.4843659978349204
4.091567754745483,2.49515384377883
4.093822002410889,2.4847951513284627
4.096072435379028,2.4858954532021826
4.098324775695801,2.485180197379613
4.1005775928497314,2.4953207368040964
4.1028289794921875,2.4856635911063663
4.105082750320435,2.484174070855864
4.107334136962891,2.4839153866667014
4.1095874309539795,2.4845281224880367
4.1118388175964355,2.4854817969181298
4.114091873168945,2.4865958078617822
4.116343259811401,2.495421468665775
4.118596792221069,2.485167084356199
4.120849370956421,2.4610671354612275
4.123189926147461,2.4551668709715453
4.125494956970215,2.4561700172626995
4.127763509750366,2.421398451494986
4.130078077316284,2.416009594918441
4.13237190246582,2.3828700045192246
4.134686470031738,2.411929656497199
4.136948108673096,2.4196872019394875
4.139199256896973,2.41970091100942
4.141452074050903,2.4263480217871694
4.143707036972046,2.433312229312924
4.145962238311768,2.4219545628970343
4.148213863372803,2.4437519840898494
4.150467157363892,2.449348860901458
4.152719736099243,2.4524953904742466
4.154971122741699,2.4585780451986845
4.157224178314209,2.4610599829030018
4.159475564956665,2.4610015703441586
4.161728620529175,2.471065219767716
4.163980007171631,2.4751833051661616
4.166233539581299,2.4757435888938413
4.168496131896973,2.4819669105967175
4.170752048492432,2.4836662392218396
4.173006772994995,2.495338022153142
4.175257682800293,2.4882414923002116
4.177511215209961,2.4914553751296253
4.17976188659668,2.4946764105172647
4.182016372680664,2.4984875319585242
4.184267520904541,2.5011005998969793
4.18652081489563,2.5023111703766787
4.18877387046814,2.503841817836978
4.191025257110596,2.506408990193485
4.193284511566162,2.509109676970205
4.195535898208618,2.511110009087325
4.197788953781128,2.5121310367740435
4.200040817260742,2.5136467830713727
4.202293872833252,2.5138673202833317
4.204546689987183,2.513984145401018
4.206799268722534,2.5133833305100595
4.209051609039307,2.5144371407553123
4.2113025188446045,2.516043486123501
4.213555335998535,2.517385782883857
4.215806722640991,2.5366827889302717
4.218059778213501,2.532055083758245
4.220310688018799,2.550278013977768
4.222563743591309,2.5663378913805355
4.224816560745239,2.578984806416608
4.2270684242248535,2.594119619622185
4.229321241378784,2.6058265692980966
4.23157262802124,2.6171735068766484
4.23382568359375,2.6264915021051767
4.236078262329102,2.634430245689183
4.238332033157349,2.6173290750180573
4.2406251430511475,2.645588832567791
4.242877244949341,2.6530263010294797
4.245131015777588,2.65929253808171
4.247382402420044,2.6608845783334467
4.249636888504028,2.6662698586308786
4.251888275146484,2.670947631710485
4.254141330718994,2.6571789571260163
4.25639271736145,2.6624444320731677
4.258645534515381,2.663966734882204
4.260898590087891,2.665253003269792
4.263149976730347,2.6711896265971213
4.265402555465698,2.665696461879785
4.267653226852417,2.6644388037251
4.269906997680664,2.6622680023036005
4.2721641063690186,2.6605305267012747
4.274416923522949,2.6562640257196457
4.276670217514038,2.656052429205469
4.278922080993652,2.6524523082318674
4.281174898147583,2.650100904715169
4.28342604637146,2.645570355125708
4.285678386688232,2.640683369718
4.287930250167847,2.634846286159311
4.2901833057403564,2.629775122377291
4.292434453964233,2.6252797395324396
4.294694185256958,2.6205447459870275
4.296947717666626,2.615509344996136
4.299199819564819,2.6149889963852164
4.301453113555908,2.6036200050854688
4.3037049770355225,2.59754807919837
4.305958271026611,2.592153858203156
4.308209419250488,2.5837519864740357
4.310462474822998,2.5783559773392652
4.312715768814087,2.5755408496309338
4.314966917037964,2.568893142806666
4.317218780517578,2.563508458555753
4.319469928741455,2.5558260149748344
4.321722507476807,2.550792998170018
4.323973178863525,2.5392499612867785
4.326226472854614,2.5343063514597834
4.328485012054443,2.5342991989015577
4.330737829208374,2.5368818684675536
4.332990884780884,2.5262454183394216
4.33524227142334,2.521229090837132
4.337494611740112,2.5001981854675037
4.3397462368011475,2.5000473856982453
4.341999530792236,2.5070407995034216
4.344250917434692,2.5039961938853494
4.346503496170044,2.5006529689613544
4.348764657974243,2.4978622791602945
4.351018905639648,2.4937269084128033
4.353273391723633,2.4897298204576757
4.355525493621826,2.4731758204908156
4.357778787612915,2.4757155747074573
4.360030174255371,2.472170886060105
4.362283706665039,2.4703273141774313
4.364537000656128,2.468656595785212
4.366788625717163,2.4678787550781673
4.369041919708252,2.4610665394147087
4.371294260025024,2.4629095152508635
4.373547554016113,2.4586829493859947
4.375799655914307,2.460755403131891
4.378052473068237,2.4279257569224546
4.380368232727051,2.360844297509706
4.382705450057983,2.3834290961538667
4.3849756717681885,2.387619303181088
4.387230396270752,2.3918327560225436
4.389483451843262,2.3974457260901603
4.391735076904297,2.402496624290541
4.39398980140686,2.4086871634348825
4.396241188049316,2.413390566514798
4.398494243621826,2.4196150803107117
4.400747299194336,2.4240115194334413
4.402998924255371,2.421983769176456
4.405251502990723,2.4333974639651137
4.407503128051758,2.4385878370508953
4.409755706787109,2.443485551295942
4.412006139755249,2.4493411122967137
4.41425895690918,2.453747088163744
4.416518688201904,2.456087762843104
4.4187703132629395,2.4605736089436543
4.42102313041687,2.4638417320062795
4.423274040222168,2.4683532081071387
4.425526857376099,2.4735048381691978
4.4277777671813965,2.4610701156938215
4.430030584335327,2.4976882335768025
4.432281732559204,2.488224206951166
4.434534311294556,2.4913331855932697
4.436786651611328,2.4911406625676946
4.439044952392578,2.491320072569856
4.441301345825195,2.4942764633031445
4.443553447723389,2.497773468228992
4.445805549621582,2.5003626943066948
4.448056697845459,2.500128448024803
4.450311660766602,2.5060942776315542
4.45256495475769,2.5081470618423296
4.454816102981567,2.510416806985951
4.457068681716919,2.5074890264855654
4.459319591522217,2.4976888296233213
4.4615724086761475,2.495785057042248
4.463823556900024,2.499597370576545
4.4660773277282715,2.5001421570947358
4.468329191207886,2.5051698094808827
4.4705846309661865,2.5074014076473006
4.472837686538696,2.509494126974836
4.475088119506836,2.5118485107241284
4.477341413497925,2.514764370294138
4.47959303855896,2.500125467792209
4.4818456172943115,2.5189277552280136
4.484097242355347,2.5188007973195075
4.486350059509277,2.5200405740786285
4.488602638244629,2.522211375500128
4.490853786468506,2.523301544583028
4.493106365203857,2.5250306755340906
4.4953577518463135,2.5265136392728853
4.497615098953247,2.51965970035311
4.499866485595703,2.5369063063748247
4.502120018005371,2.528095546733802
4.504678249359131,2.5295701658213336
4.506946086883545,2.519635262445839
4.5092010498046875,2.528242770223948
4.5114545822143555,2.5342342298310077
4.5137083530426025,2.528030577663252
4.515960216522217,2.5288286839519363
4.518213987350464,2.519799175238511
4.520464897155762,2.526855769974681
4.522726058959961,2.5265911253203304
4.524979591369629,2.5251773029777174
4.527231216430664,2.526359859271033
4.529484272003174,2.536746565907784
4.531735420227051,2.524808350182575
4.533987998962402,2.523562016911747
4.536238670349121,2.5222590592216325
4.538492202758789,2.5212338592092824
4.540745496749878,2.513033451203519
4.543014049530029,2.5060930855385166
4.545274496078491,2.5063446171694537
4.547526836395264,2.5061562664695103
4.549781084060669,2.506657541591828
4.552032232284546,2.504883111105336
4.554285287857056,2.4978318807878352
4.556549310684204,2.4987795947527403
4.558801889419556,2.497499882876859
4.561055660247803,2.4834528545681063
4.563307046890259,2.4886527643981893
4.5655601024627686,2.4951580161044618
4.567811489105225,2.490234671859106
4.570064067840576,2.4911501993119956
4.572315692901611,2.490580378840015
4.574568748474121,2.4921420207192924
4.576821804046631,2.4939104907405962
4.579073667526245,2.494659721214738
4.581326246261597,2.494551836794834
4.583577394485474,2.495670616110637
4.585829973220825,2.4950227135446923
4.5880818367004395,2.4939534060899504
4.590335369110107,2.4946585291217005
4.592588424682617,2.4952867621525243
4.594839811325073,2.496254741699069
4.5970940589904785,2.4970582124064222
4.599345684051514,2.4982187149785418
4.601598739624023,2.497000395894098
4.603850364685059,2.496676146587866
4.606102705001831,2.4958917493691146
4.608353614807129,2.496431171468636
4.610605239868164,2.497086822639325
4.612857818603516,2.4958613509966554
4.615108966827393,2.493133842126589
4.617389440536499,2.494234740046828
4.619641065597534,2.4940398328351776
4.621893405914307,2.493149935382597
4.624145269393921,2.495374977037308
4.626398801803589,2.493196427011064
4.62865138053894,2.48892754184336
4.63094162940979,2.4610230280188357
4.633244276046753,2.4630740240900546
4.635556221008301,2.4372705742443292
4.637880325317383,2.4164590139936224
4.640192270278931,2.4210598970723027
4.642467737197876,2.4279788050626285
4.644722938537598,2.43301420605352
4.646975040435791,2.4357572121330753
4.649229049682617,2.441997819184997
4.65148401260376,2.446241670398911
4.653738021850586,2.4505880416140604
4.655989646911621,2.456211740519016
4.658242464065552,2.459760005445481
4.660504579544067,2.4655535776082966
4.662756443023682,2.4586901019442204
4.665009498596191,2.4628260687382304
4.667261123657227,2.4675682148418683
4.669513702392578,2.471962269778522
4.671765089035034,2.4706938827864984
4.674018144607544,2.4758455128485575
4.676269054412842,2.481027541283076
4.678528547286987,2.4856880290136374
4.680783748626709,2.486798463678177
4.683035373687744,2.491635977224824
4.685288667678833,2.494334279815469
4.687539577484131,2.497236430315546
4.689792633056641,2.500610649658519
4.692044258117676,2.503379881784902
4.6942973136901855,2.5001081824431637
4.696551322937012,2.509118021621468
4.698802471160889,2.511473597463798
4.701055288314819,2.5147786754105894
4.7033069133758545,2.5143805163360256
4.705559730529785,2.5001397729086605
4.70781135559082,2.51762420149138
4.710064172744751,2.5194004201174285
4.712315320968628,2.536905710328306
4.714568376541138,2.5212469722326962
4.716822147369385,2.5198319577970456
4.719073295593262,2.524063292034065
4.721325874328613,2.5242695241295725
4.723577499389648,2.524789872740492
4.725829601287842,2.52578109810127
4.728080749511719,2.5264349611324026
4.730333566665649,2.527219358351154
4.732586145401001,2.5282290611540152
4.734842777252197,2.5276091727744547
4.737096309661865,2.5277337464968856
4.7393479347229,2.526343766015025
4.741600513458252,2.5265535743896455
4.743851661682129,2.5267621906712283
4.7461042404174805,2.52689630113796
4.748355388641357,2.527101937186949
4.750608444213867,2.5262454183394216
4.752861499786377,2.524699869716152
4.755112171173096,2.5238588480781137
4.757364749908447,2.5196489715157715
4.759616136550903,2.5239470629628973
4.761868953704834,2.523152532953326
4.76412034034729,2.5176909587014866
4.766373872756958,2.5059136755363554
4.768627166748047,2.508294881378994
4.770879030227661,2.500253617793753
4.773131847381592,2.506408990193485
4.775383472442627,2.5067248948484533
4.777636289596558,2.5072434553198164
4.779887437820435,2.500131428257397
4.782140493392944,2.507518232764987
4.784392356872559,2.506701052987701
4.7866456508636475,2.5050553685492716
4.788897752761841,2.5038722162094373
4.791148662567139,2.5027224424746564
4.793401479721069,2.5025942924731126
4.7956531047821045,2.500259578258941
4.797906875610352,2.5007310510553182
4.8001580238342285,2.500763237567334
4.802411317825317,2.4986883996353626
4.804664611816406,2.4986883996353626
4.806916236877441,2.4953916663398346
4.809173583984375,2.489558159060259
4.811426162719727,2.4908617127968924
4.813678503036499,2.497577964970823
4.815929174423218,2.489914594878506
4.81818151473999,2.4977090952049608
4.820433139801025,2.4887087927709572
4.822693109512329,2.4885895834671956
4.82494592666626,2.488137780205939
4.827197074890137,2.489362059755571
4.829449653625488,2.490498720466938
4.831701278686523,2.490282355580611
4.833954334259033,2.4975827333429734
4.836205720901489,2.490725814190604
4.838457822799683,2.48443633132414
4.8407182693481445,2.4805626249984054
4.842970132827759,2.490247188836001
4.845223665237427,2.4869278057727584
4.847475290298462,2.484965620632842
4.84972882270813,2.4874219283368504
4.851980209350586,2.4855670315703193
4.854233503341675,2.486875949725622
4.856492280960083,2.4867197855376943
4.858743667602539,2.488541303699172
4.8609960079193115,2.4896243202238466
4.8632471561431885,2.4901375162765405
4.86549973487854,2.488224206951166
4.867752552032471,2.4726977911827315
4.870005369186401,2.4546721523609345
4.87225604057312,2.439064674265942
4.874508619308472,2.424314311064996
4.87676215171814,2.412567426272324
4.879013538360596,2.4216565396376297
4.8812665939331055,2.428294113671078
4.8835179805755615,2.4325743237226396
4.885770559310913,2.397707390511917
4.888094186782837,2.3486295161997695
4.890431642532349,2.3747691362821026
4.89269495010376,2.3829784849856477
4.894948244094849,2.3942473404702356
4.897201299667358,2.4041387324498573
4.8994526863098145,2.414257814199664
4.901705980300903,2.422942808025218
4.90395712852478,2.4310526169601223
4.906210660934448,2.438479952630991
4.908461570739746,2.4561110086573374
4.910720109939575,2.4546447342210693
4.912972927093506,2.4636748389810132
4.915223836898804,2.4705406988311647
4.917476415634155,2.476854023558381
4.919726848602295,2.4833491424738336
4.921979904174805,2.490440307908095
4.9242308139801025,2.495117484941183
4.926484823226929,2.501983940837853
4.928737640380859,2.5001236796526527
4.930989980697632,2.510758937687747
4.9332427978515625,2.516773643109041
4.935494422912598,2.5207272196682955
4.937747478485107,2.5248530536714857
4.939999103546143,2.528227273014459
4.942252159118652,2.5325420537641112
4.944511651992798,2.536508147300261
4.946763277053833,2.538204495692789
4.949015378952026,2.5424006631851985
4.951266527175903,2.5435003690123996
4.953519582748413,2.5447282248411445
4.955771446228027,2.5457218343879977
4.958024263381958,2.5393274473342236
4.960275173187256,2.539223735239951
4.962527751922607,2.5509688318930666
4.964783668518066,2.552352851909739
4.967034339904785,2.534379665181597
4.969337701797485,2.522497477829156
4.971599102020264,2.518031301263726
4.973853588104248,2.522148194569134
4.976104974746704,2.522888484345494
4.978358745574951,2.5252506166995308
4.980612754821777,2.5267919929971687
4.982864141464233,2.5280049476629434
4.985117435455322,2.528239789991354
4.987368583679199,2.519734206167961
4.989621162414551,2.5295308267510923
4.991873025894165,2.5306573546716398
4.994130849838257,2.53441304378665
4.9963836669921875,2.529932562104769
4.998636484146118,2.5306490100203765
5.0008885860443115,2.530454698855245
5.003139972686768,2.529959980244634
5.005395889282227,2.5295051967507836
5.007647275924683,2.5280728969660875
5.009900331497192,2.5276812944032305
5.012526988983154,2.5148233788995
5.014820337295532,2.493582069108733
5.017077207565308,2.470598515343489
5.019330739974976,2.4555197305106797
5.021584510803223,2.4518987479089196
5.023836612701416,2.4462440545849864
5.026090621948242,2.4563249893575896
5.028341770172119,2.4560955114478484
5.030595064163208,2.458539302174962
5.032849073410034,2.463445957117791
5.035099983215332,2.465362842722278
5.037352800369263,2.467167671581229
5.039608716964722,2.464297111546649
5.041865110397339,2.4693414532353226
5.044116258621216,2.4610820366241977
5.046370029449463,2.4751093953978294
5.048623323440552,2.461046273833069
5.050875663757324,2.4814257003576397
5.053129196166992,2.4835166315456187
5.055380344390869,2.4806901789534304
5.0576331615448,2.4893632518486086
5.0598838329315186,2.4929615846826536
5.0621373653411865,2.488994895099985
5.064398527145386,2.492637335376422
5.066654443740845,2.4958792323922196
5.068908214569092,2.497462331946174
5.071159362792969,2.4975600835752587
5.07341194152832,2.4858775718066184
5.075662612915039,2.497851550322956
5.077915191650391,2.4970260258944066
5.080166339874268,2.5000676512798847
5.0824196338653564,2.504352033657078
5.084672451019287,2.5062325604239177
5.08692479133606,2.5076821455576592
5.089177370071411,2.5089266906889307
5.091428756713867,2.510041297679102
5.093681812286377,2.5001963973279473
5.095932483673096,2.5148496049463276
5.098185062408447,2.5000986456988628
5.100436210632324,2.5180026910308233
5.10269570350647,2.5187662266214166
5.104948997497559,2.518304886615859
5.107200384140015,2.5147262233169343
5.109452724456787,2.520610394550609
5.111704111099243,2.5219538834040027
5.1139562129974365,2.534472052392012
5.116207599639893,2.5224354889911997
5.118460416793823,2.520057263381155
5.120712757110596,2.5176045319562594
5.122965097427368,2.519399228024391
5.125218152999878,2.5193414115120665
5.127469539642334,2.500101029884938
5.1297221183776855,2.519542279188905
5.131974220275879,2.5195679091892136
5.134228229522705,2.514729799596047
5.136498689651489,2.5122645511942565
5.138793468475342,2.492208777929399
5.141094923019409,2.4926939597957087
5.14335298538208,2.4952277535471623
5.145606756210327,2.492649256306798
5.147894859313965,2.454400355148358
5.150217771530151,2.445971661325891
5.15257453918457,2.4233111647738417
5.15486216545105,2.435928873530492
5.157124996185303,2.4221220519688194
5.159380197525024,2.447080903897393
5.161634922027588,2.4532118383898545
5.163886308670044,2.4571612426234775
5.166139841079712,2.462721760597439
5.168390989303589,2.4671265443714314
5.1706438064575195,2.4717524614039017
5.17289662361145,2.475439605169249
5.175148248672485,2.4643328743377775
5.177401304244995,2.4728694525801482
5.179652452468872,2.47925013056399
5.181905508041382,2.4838432650379256
5.184156656265259,2.4861910922755115
5.186413288116455,2.489026485565482
5.18866753578186,2.495287358199043
5.190918684005737,2.495476900992024
5.193171739578247,2.4998006224394587
5.195423364639282,2.5034466389950083
5.197679758071899,2.493886052833325
5.199959993362427,2.4967768784495448
5.20222544670105,2.4991145728963104
5.204484701156616,2.50158041734462
5.2067389488220215,2.5044092541228835
5.208992004394531,2.507244647412854
5.2112438678741455,2.514729799596047
5.213496446609497,2.5171080252060922
5.215747356414795,2.5182291887079704
5.21800684928894,2.517717184748314
5.2202582359313965,2.51844436150126
5.222513437271118,2.5199219608213856
5.224766492843628,2.5215593006085517
5.227017402648926,2.5238880543575353
5.2292704582214355,2.5369039221887495
5.231521844863892,2.527229491141974
5.233774423599243,2.528525296273863
5.236025333404541,2.528829876044974
5.238278150558472,2.5236663250525386
5.24053955078125,2.5342044275050672
5.2427942752838135,2.5239470629628973
5.24504828453064,2.525949183219574
5.247299432754517,2.5233271745833368
5.249553203582764,2.5257483155427356
5.25180459022522,2.524675431808881
5.2540576457977295,2.5245621829703073
5.2563087940216064,2.5250247150689025
5.258562326431274,2.523956599707198
5.260817289352417,2.526032629732207
5.263068199157715,2.525494995772242
5.265320539474487,2.5196275138410944
5.267571687698364,2.525778117868676
5.269824028015137,2.5251582294891155
5.272075414657593,2.5238624243572265
5.2743284702301025,2.5226226475981055
5.276581287384033,2.5147232430843403
5.27883243560791,2.510339320938506
5.281085014343262,2.51173764607163
5.2833356857299805,2.511610092116605
5.28558874130249,2.51032740000813
5.287839651107788,2.5093969713922704
5.290092945098877,2.500184476397571
5.292344570159912,2.5090792785977456
5.2945966720581055,2.509438694648587
5.296849966049194,2.5001981854675037
5.299101829528809,2.5099155318636335
5.30135440826416,2.5092217337157408
5.303606271743774,2.50865191324376
5.305859327316284,2.5087067495234905
5.308110952377319,2.507944406025935
5.310363531112671,2.5087192665003855
5.3126161098480225,2.507782281372819
5.314866781234741,2.5085923085918793
5.317118883132935,2.507809699512684
5.3193700313568115,2.505616844369989
5.321623086929321,2.500278651747543
5.323874473571777,2.5033864382966087
5.326126575469971,2.5030329827109554
5.328377723693848,2.5034400824833014
5.33063006401062,2.503056228525189
5.33288311958313,2.5033751134127513
5.335133790969849,2.5022593143295424
5.337385892868042,2.502067387350486
5.339637041091919,2.50158041734462
5.3418896198272705,2.5016191603683424
5.344141483306885,2.500542104308856
5.346393823623657,2.5009414554764575
5.3486480712890625,2.499246299176967
5.350911855697632,2.4984863398654866
5.35316801071167,2.497997581720064
5.355419635772705,2.498180568001338
5.357672929763794,2.496788203333402
5.359924077987671,2.497248947292441
5.36217737197876,2.49755948752874
5.3644280433654785,2.4983403084683786
5.366681098937988,2.498491704284156
5.36893367767334,2.4980929491630732
5.371185302734375,2.495335041920548
5.373438358306885,2.4977937338106315
5.375689744949341,2.498007118464365
5.377943515777588,2.4977573749729842
5.380194187164307,2.4828985313056147
5.382447004318237,2.489067016728761
5.384701251983643,2.4885436878852474
5.386953115463257,2.490005193949365
5.3892059326171875,2.4898704874361144
5.3914573192596436,2.497571408459116
5.393710136413574,2.491338550011939
5.395961761474609,2.492199241185098
5.398214340209961,2.479361591263007
5.400561571121216,2.3975410935331696
5.402891635894775,2.4196770691486678
5.405210733413696,2.4211063887007698
5.407463073730469,2.4253198415422252
5.409723520278931,2.422042181735299
5.411975383758545,2.436652474004325
5.414229393005371,2.4412974645253973
5.4164879322052,2.446558767146917
5.4187400341033936,2.456320220985439
5.420992851257324,2.4587765286894476
5.423243999481201,2.4589505742729396
5.425496816635132,2.463174755951733
5.427748203277588,2.468567188807391
5.4300010204315186,2.4729177323481717
5.4322521686553955,2.46113091243874
5.434504985809326,2.480154333133022
5.436761140823364,2.4836078266629964
5.439011812210083,2.4784210298563276
5.441278696060181,2.48354106945289
5.443532228469849,2.488644419746926
5.445785760879517,2.492009698392117
5.448037624359131,2.492944895380127
5.45029091835022,2.496987282870684
5.4525439739227295,2.499967515464725
5.454795598983765,2.5035819415547778
5.457048654556274,2.5074675688108883
5.459299802780151,2.5103715074505217
5.461552858352661,2.51374811097957
5.463804006576538,2.516250910312046
5.466057777404785,2.518481912431945
5.468309164047241,2.519116701974476
5.470561504364014,2.5198701047742493
5.472815275192261,2.5206503296673692
5.475066184997559,2.534335557739205
5.47731876373291,2.524031701568568
5.479569673538208,2.525964680429063
5.481822967529297,2.5151690858804088
5.484074592590332,2.499358951969022
5.486326694488525,2.50652641135769
5.488579034805298,2.5083372006818294
5.490830183029175,2.5108918560614413
5.4930830001831055,2.512350381892965
5.495333909988403,2.5147280114564907
5.497586011886597,2.5164547582214785
5.499837636947632,2.5178435466103015
5.502089977264404,2.5175479075369727
5.504342079162598,2.5174340626518803
5.506594896316528,2.5172927996269228
5.50885009765625,2.5178930184713626
5.511102199554443,2.519949378961251
5.513359785079956,2.52057999617815
5.51561164855957,2.521496119677558
5.51786470413208,2.5211164380450772
5.520426988601685,2.5231292871390925
5.522780179977417,2.5219765331717174
5.525035858154297,2.5344672840198617
5.527288436889648,2.520825567343899
5.529541730880737,2.521667781074975
5.53179407119751,2.521486582933257
5.5340471267700195,2.5200155401248385
5.536298990249634,2.504267395051407
5.538558721542358,2.4839797596907327
5.540817737579346,2.4635872201427484
5.5430707931518555,2.4401906061399705
5.54532527923584,2.429426006010295
5.547576904296875,2.4221035745267363
5.549830675125122,2.4211779142830268
5.552081823348999,2.4258717806186416
5.554335117340088,2.431821516969385
5.5565876960754395,2.436118416323473
5.558839797973633,2.4417141010420442
5.561092138290405,2.4470522936644903
5.5633440017700195,2.452782684896312
5.565596580505371,2.4585369179888867
5.567847728729248,2.4609735561577746
5.570101499557495,2.456591422151497
5.57236385345459,2.4609729601112558
5.5746214389801025,2.4668899139034646
5.576875686645508,2.4734219877030834
5.579126834869385,2.4783965919490565
5.581384897232056,2.482316193856739
5.583636283874512,2.4793907975424285
5.5858893394470215,2.4611791922067634
5.588140249252319,2.447690659486134
5.59039306640625,2.4435618452503496
5.592646837234497,2.454972559806414
5.594898700714111,2.4604824138262766
5.597153425216675,2.467466290887152
5.599404573440552,2.4734714595641445
5.6016576290130615,2.4775579544970934
5.6039087772369385,2.48312085665713
5.606160879135132,2.488417922069779
5.60841178894043,2.493572532364432
5.61066460609436,2.4987950919622293
5.61291766166687,2.503311336435239
5.615179061889648,2.4552586621354417
5.617517948150635,2.3999866723998395
5.6198484897613525,2.3508265436680964
5.622190475463867,2.3144534009043456
5.624577045440674,2.27034595851254
5.626911878585815,2.234123615518047
5.629262685775757,2.2217216756012053
5.631578683853149,2.1886703000867724
5.633883476257324,2.1636703209484005
5.636157751083374,2.1460642988758445
5.6384406089782715,2.1095558535523242
5.640750885009766,2.091544519846978
5.643028497695923,2.0703193033122185
5.64531397819519,2.054887062893756
5.647624254226685,2.0408442069106347
5.649997711181641,2.003893495070159
5.652323484420776,1.987321017661216
5.654675722122192,1.9780679915032378
5.6570329666137695,1.9742962091322194
5.659371376037598,1.9731774298164164
5.661717891693115,1.98207282806311
5.664037704467773,1.992986439822488
5.666374444961548,2.0024302008664847
5.668708086013794,2.011517526092234
5.671045303344727,2.0576169559498974
5.67333722114563,2.124300256288082
5.675595283508301,2.170594593357395
5.6778504848480225,2.229124573364803
5.6801018714904785,2.281706009114505
5.682355642318726,2.335614244415074
5.684610605239868,2.3778739425985744
5.686861991882324,2.4119123711481536
5.689115524291992,2.4587061952002283
5.69136643409729,2.5010588766406627
5.6936194896698,2.542576496908247
5.6958746910095215,2.5731340137879863
5.698132753372192,2.6106074584254575
5.700384855270386,2.6174119254841717
5.702649354934692,2.6710370386883064
5.704903841018677,2.6986876366958183
5.707156419754028,2.726288762842269
5.709410190582275,2.7520868482693253
5.7116615772247314,2.7736333338777226
5.713915109634399,2.796358799500322
5.7161664962768555,2.8147700804197884
5.718419551849365,2.830725649681765
5.720672369003296,2.8450307661331613
5.722923517227173,2.8578004667521077
5.7251763343811035,2.868194921993604
5.727427959442139,2.8713134373800084
5.729681015014648,2.8841552596277307
5.73193359375,2.8901496994673845
5.734187841415405,2.893775450441295
5.736438751220703,2.895127283945952
5.738699436187744,2.8909245599418356
5.740952491760254,2.896824228384999
5.743203639984131,2.8950694674336277
5.745456695556641,2.8923818936803216
5.747710227966309,2.8881744013040542
5.749962568283081,2.883902535903756
5.752214431762695,2.886028037789826
5.754467487335205,2.8682187638543564
5.756721258163452,2.860452277714286
5.758971929550171,2.852940303437746
5.761225461959839,2.843042354946417
5.763476848602295,2.833214143897789
5.7657294273376465,2.8232619551732485
5.767981290817261,2.8108707440937453
5.770235061645508,2.7982381341741247
5.772492408752441,2.7861562712378825
5.774744510650635,2.773104044569021
5.776997804641724,2.762115330948273
5.7792487144470215,2.7490136324183503
5.781502723693848,2.7358821315624873
5.783754348754883,2.721929874650225
5.7860071659088135,2.7081629882053124
5.78825831413269,2.6904216635729865
5.790511131286621,2.667274793061589
5.7927634716033936,2.657699305736936
5.795015335083008,2.646084147224921
5.79726767539978,2.6342627566173977
5.799518585205078,2.6234308032310967
5.801772356033325,2.609974457022483
5.804023742675781,2.597596955012912
5.806276321411133,2.586590956043119
5.80853009223938,2.5757864207966827
5.810781478881836,2.566249080449233
5.813035011291504,2.5561484761415096
5.815286874771118,2.5475159344096108
5.817540407180786,2.537374202892089
5.819791555404663,2.527568641611176
5.8220438957214355,2.518851461273606
5.824295282363892,2.5001868605836464
5.826548337936401,2.500281631980137
5.828801393508911,2.495098411452581
5.83105206489563,2.4882170543929405
5.8333046436309814,2.495225369361087
5.835556268692017,2.4754843086581597
5.837808609008789,2.468255456478054
5.840063571929932,2.4564829416850738
5.842319011688232,2.453756624908045
5.844571352005005,2.450530225101736
5.846822261810303,2.444067292698299
5.849075078964233,2.442096762907119
5.851325988769531,2.438368491931974
5.85357928276062,2.435742310970105
5.855831146240234,2.4332114974512455
5.858084678649902,2.432182125113264
5.8603363037109375,2.431364349289459
5.862589120864868,2.430482200441623
5.864841461181641,2.422097614061548
5.867092847824097,2.428950360888286
5.869345664978027,2.4278262171538136
5.871596336364746,2.42189674638471
5.873849630355835,2.4281409297157444
5.876101016998291,2.422160198946023
5.878353595733643,2.4305978334662717
5.8806071281433105,2.4320182123205916
5.8828582763671875,2.421980192897343
5.885111093521118,2.4339762251348764
5.887361764907837,2.4351730865446433
5.8896143436431885,2.4357250256210596
5.89186954498291,2.4218794610356644
5.894122362136841,2.422132780806158
5.896373510360718,2.4325564423270754
5.898626089096069,2.4356082005033732
5.90087890625,2.3791357730788913
5.90320348739624,2.3526003781080695
5.905516862869263,2.371368690892302
5.907773017883301,2.378882453308398
5.910026788711548,2.3871335252682595
5.912280082702637,2.3951485628066735
5.914533853530884,2.419514348449033
5.916788339614868,2.4113652004438877
5.9190404415130615,2.418213178898475
5.92129373550415,2.4253007680536234
5.9235451221466064,2.4315747537105983
5.925798416137695,2.4220004584789825
5.928051710128784,2.444378428981117
5.9303059577941895,2.4507144034760477
5.932559490203857,2.458207304263986
5.9348108768463135,2.4646249371319935
5.937063455581665,2.471304234421758
5.9393150806427,2.4773457619363977
5.94156813621521,2.484215198065662
5.943818807601929,2.490080295810735
5.94607138633728,2.4962899084436785
5.948322534561157,2.5012436510614933
5.950575113296509,2.5053665048320894
5.9528281688690186,2.508096397888231
5.955079555511475,2.5126650944548956
5.9573328495025635,2.516098322403231
5.959583759307861,2.520662846644264
5.961836814880371,2.5250610739065498
5.964087724685669,2.5275412234713106
5.966340065002441,2.5314441360764666
5.968604803085327,2.5001177191874646
5.970895290374756,2.5182917735924453
5.973155498504639,2.5203517103614463
5.975409269332886,2.5248721271600876
5.977663040161133,2.5281915102233303
5.9799158573150635,2.5310990251420766
5.982170104980469,2.5343802612281157
5.984421968460083,2.535802428221992
5.986675024032593,2.5369843884687886
5.9889280796051025,2.5388303445375375
5.991180896759033,2.5385376856968027
5.993434190750122,2.5343433063439496
5.99568510055542,2.530140582339833
5.99793815612793,2.5328084865580185
6.000188827514648,2.53339797656512
6.002442121505737,2.5333890358673377
6.004695653915405,2.534932796351051
6.006946563720703,2.535786334965984
6.009199619293213,2.5343093316923775
6.011451482772827,2.5390973733779636
6.013705015182495,2.5390628026798727
6.01595664024353,2.5395110296620165
6.018209934234619,2.5390628026798727
6.020460844039917,2.5394925522199334
6.022759675979614,2.5397530245486526
6.025014400482178,2.5392785715196813
6.027265787124634,2.5396475243148235
6.02980899810791,2.541351621312096
6.032076597213745,2.5344023149493116
6.034332275390625,2.534801666116913
6.036588668823242,2.5340232293633496
6.0388407707214355,2.5343224447157913
6.041102886199951,2.5271275671872577
6.043356895446777,2.5282940302245653
6.045611143112183,2.528214159991045
6.047862768173218,2.5218775894495953
6.050121784210205,2.5224211838747483
6.0523741245269775,2.5202825689652646
6.054627895355225,2.519790830587248
6.0568811893463135,2.518463434989862
6.059132814407349,2.5182500503361287
6.061385154724121,2.518040838008027
6.063636541366577,2.518677415690114
6.06588888168335,2.5179961345191164
6.0681397914886475,2.5171747824161987
6.070392847061157,2.516267003568054
6.072645664215088,2.5156250614672975
6.074897050857544,2.5152942556493585
6.0771496295928955,2.5146487372694892
6.079401254653931,2.50812679626069
6.081664323806763,2.500007450581485
6.083917140960693,2.507579625556424
6.0861711502075195,2.5059321529784384
6.088422775268555,2.5049254304081714
6.090675592422485,2.500215470816549
6.092928647994995,2.500140965001698
6.095180034637451,2.5017967822309473
6.097433090209961,2.489678560457058
6.099684953689575,2.4943354719085065
6.101938009262085,2.4942925565591523
6.104190826416016,2.4938967816706636
6.106443405151367,2.4946609133077757
6.108696699142456,2.4946400516796174
6.110947608947754,2.495803534484331
6.113200426101685,2.494964897032368
6.1154515743255615,2.4957862491352856
6.11770486831665,2.4955871695980036
6.119955778121948,2.4933531872455106
6.122210741043091,2.4939778439972216
6.124462127685547,2.493624984458087
6.126748323440552,2.4954035872702107
6.12900185585022,2.496540247981578
6.131253242492676,2.4973347779911492
6.133506536483765,2.495809494949519
6.1357574462890625,2.496194541000669
6.138010025024414,2.4951985472677407
6.14026141166687,2.4951061600573254
6.142514228820801,2.4961063261158856
6.14476752281189,2.4973466989215254
6.147019147872925,2.4982252714902486
6.149273157119751,2.498690783821438
6.151525020599365,2.4981877205595637
6.153777837753296,2.491300403034735
6.15606689453125,2.4733063546784346
6.158367872238159,2.461198861741884
6.160629510879517,2.4718150462883766
6.162927627563477,2.437119178428552
6.165250301361084,2.4367102905166496
6.167574882507324,2.4220105912698022
6.169841289520264,2.4436762861819608
6.172094345092773,2.4452212387587116
6.1743483543396,2.450605326963106
6.176604270935059,2.455506021440747
6.178856611251831,2.460856731040088
6.181109666824341,2.4655041057472356
6.183360815048218,2.461155350346011
6.18561315536499,2.461223895695674
6.18786358833313,2.475433644704061
6.190117120742798,2.4794474219617153
6.192369222640991,2.48313098944795
6.194621801376343,2.487820683457933
6.1968748569488525,2.490257321626821
6.19912576675415,2.478755411953379
6.20137882232666,2.48506158412237
6.20363450050354,2.4874255046159632
6.205887794494629,2.4915418018748525
6.208139419555664,2.4921038737420886
6.210392951965332,2.4971625205472137
6.212648153305054,2.5002959370965883
6.214900493621826,2.502814233638553
6.217153310775757,2.504991591571759
6.219404458999634,2.507605851603252
6.221656799316406,2.5096794974421854
6.223908424377441,2.5113943232767966
6.226161956787109,2.51378804609633
6.2284135818481445,2.5166037698511805
6.230666399002075,2.5177785775397514
6.232919454574585,2.5193944596522404
6.235170841217041,2.519557776398394
6.2374231815338135,2.52004474640426
6.239674806594849,2.517089547764009
6.241984128952026,2.5342837016920687
6.244236707687378,2.5197139405863216
6.246489763259888,2.5212022687437856
6.248743772506714,2.52140015618803
6.250994920730591,2.521353664559563
6.253248929977417,2.521266045721298
6.255500555038452,2.514820398666906
6.257753133773804,2.5010433794311737
6.260005235671997,2.497707903111923
6.262258052825928,2.4810913182605883
6.264517784118652,2.472220953967685
6.266768932342529,2.463433440140896
6.269021987915039,2.4540784900282016
6.271273374557495,2.446071797141051
6.273526906967163,2.4388363884492383
6.2757792472839355,2.433083347449702
6.278032541275024,2.428517631115631
6.2802839279174805,2.4235346822183947
6.282537221908569,2.419499447286063
6.2847900390625,2.4171927472582753
6.287042140960693,2.4106380236909417
6.289295434951782,2.407247711091961
6.291546583175659,2.4032035354618473
6.29379940032959,2.3976912972559092
6.296050548553467,2.400099921238413
6.298304080963135,2.398264097960484
6.300556898117065,2.3897656666953164
6.30280876159668,2.383251474291262
6.305061340332031,2.385143325941959
6.307312965393066,2.3863199217700863
6.309566259384155,2.3882248864441973
6.3118181228637695,2.3904171455403738
6.314071416854858,2.3830601433587244
6.316322326660156,2.3829045752173155
6.318575859069824,2.395759510488452
6.320829153060913,2.3982939002864243
6.3230812549591064,2.4016931535831874
6.325334787368774,2.402367878242478
6.3275861740112305,2.4081966171499034
6.329838991165161,2.4113878502116024
6.332090854644775,2.4152442711882913
6.334344387054443,2.4194875263556868
6.336597681045532,2.418713261927755
6.338849306106567,2.424602797580099
6.341102123260498,2.4440005354881924
6.343353986740112,2.460497314989247
6.345606803894043,2.4758884281979117
6.34785795211792,2.489806114412083
6.35011100769043,2.5024577978203055
6.352367639541626,2.5000438094191324
6.3546223640441895,2.525280419025471
6.356875419616699,2.53597349357289
6.35912561416626,2.5477924999943378
6.36137843132019,2.556763000102401
6.363629102706909,2.565768070908555
6.365882396697998,2.5749114245070723
6.368133544921875,2.5781557057089457
6.3703882694244385,2.578350612920596
6.372642278671265,2.5902500856220825
6.374893426895142,2.5958952422017147
6.37714695930481,2.6020327332058826
6.3793981075286865,2.6064488418637324
6.381651163101196,2.6107564700551595
6.383902311325073,2.6125809684492314
6.386155366897583,2.6150784033630377
6.388407230377197,2.6168963452454026
6.390660524368286,2.6185211680556737
6.392912864685059,2.6172325154820104
6.3951640129089355,2.621360733671276
6.397417306900024,2.621344640415268
6.399668455123901,2.621025159481187
6.401921272277832,2.618671967824932
6.404172897338867,2.601909947623008
6.406425952911377,2.6043263202102565
6.408678770065308,2.6039835934619417
6.410929918289185,2.603730869737967
6.413183212280273,2.561323948064321
6.415505409240723,2.5048348313373126
6.417835235595703,2.5241914420356086
6.420097589492798,2.5253412157703896
6.42235255241394,2.5271305474198518
6.424606084823608,2.528940740697472
6.4268574714660645,2.530880276069674
6.429110527038574,2.532173100968969
6.431362152099609,2.5367042466049488
6.433615207672119,2.53363281889353
6.435867071151733,2.533111874236092
6.438120365142822,2.53245264678629
6.440370798110962,2.5268545778816436
6.4426429271698,2.5290051137215035
6.4448981285095215,2.528985444186383
6.447149038314819,2.5278022918465486
6.449402809143066,2.5344762247176438
6.451654434204102,2.523727717843976
6.453909158706665,2.534264032156948
6.456160545349121,2.522882523880306
6.45841383934021,2.523721757378788
6.460667133331299,2.52457589204024
6.462918519973755,2.525743547170585
6.465171575546265,2.534252111226572
6.4674232006073,2.5240680604062153
6.46967625617981,2.5341919105281723
6.471930265426636,2.521931233636288
6.4741833209991455,2.520881595716667
6.476434946060181,2.5342342298310077
6.478694438934326,2.521667781074975
6.480947494506836,2.5208517933907264
6.483199834823608,2.521046104555858
6.485452651977539,2.5194290303503313
6.487703800201416,2.5177100321900885
6.489956855773926,2.5180211684729064
6.49220871925354,2.5001642108159317
6.49446177482605,2.517503800094581
6.496714353561401,2.5165548940366382
6.498966455459595,2.5172093531142896
6.501221656799316,2.5148722547140423
6.503473281860352,2.513369025393608
6.505726099014282,2.5001493096529614
6.507977724075317,2.483046946888798
6.510230779647827,2.4907591927956574
6.512489557266235,2.492173611184789
6.514741659164429,2.4929866186364436
6.516994476318359,2.494019567253538
6.519245147705078,2.4942645423727683
6.52149772644043,2.4944815033056145
6.523749113082886,2.4943408363271757
6.5260021686553955,2.4977716800894356
6.528254270553589,2.4967059489138066
6.5305116176605225,2.495287358199043
6.532765865325928,2.498473226842073
6.535016775131226,2.4979618189289354
6.53757119178772,2.4976417419483354
6.539837598800659,2.4979957935805075
6.542092561721802,2.498982846615654
6.544345378875732,2.4999883770928832
6.5465991497039795,2.5001463294203674
6.548853874206543,2.5002297759330006
6.551105499267578,2.500278651747543
6.553358316421509,2.4997147917407503
6.555609464645386,2.499367296620285
6.5578625202178955,2.500256001979828
6.560114860534668,2.500399053144342
6.562368392944336,2.5020965936299078
6.564621448516846,2.5022122266545566
6.56687331199646,2.502605021310451
6.569126129150391,2.5016316773452374
6.5713770389556885,2.501983940837853
6.573631048202515,2.5014224650171357
6.575882911682129,2.502117455258066
6.57813572883606,2.5022247436314515
6.5803868770599365,2.5000938773267123
6.582639932632446,2.502928674570164
6.584893465042114,2.502956688756548
6.58714485168457,2.495200335407297
6.589439392089844,2.497710883344517
6.591692209243774,2.4977681038103228
6.593945264816284,2.498960792894458
6.596196413040161,2.498833238939433
6.59844970703125,2.5001338124434724
6.600703477859497,2.5003817677952966
6.602954387664795,2.500050961977358
6.605207204818726,2.5018885733948437
6.607458829879761,2.497071921476355
6.609711647033691,2.488137780205939
6.611963510513306,2.4934646479445277
6.614216327667236,2.4938967816706636
6.616468667984009,2.495981156346936
6.618727922439575,2.4976262447388464
6.620980501174927,2.497506439388566
6.623232126235962,2.497493326365152
6.625486135482788,2.498712241496115
6.627737522125244,2.5001397729086605
6.629991292953491,2.5013640524582925
6.632242679595947,2.50226050642258
6.634495258331299,2.5028994682907424
6.636748313903809,2.502469122704163
6.6389992237091064,2.5029763582916686
6.641251802444458,2.495293318664231
6.643505811691284,2.497637569622704
6.645763635635376,2.497773468228992
6.64801549911499,2.498041093115937
6.650268793106079,2.4987420438220553
6.652522325515747,2.4977245924144498
6.654773950576782,2.4986675380072043
6.657028436660767,2.498600780797098
6.659278869628906,2.5000187754653425
6.661532640457153,2.4951675528487627
6.663825035095215,2.4761900277364286
6.666131258010864,2.4680903515923442
6.6684489250183105,2.443270974549171
6.670797824859619,2.4072173127195016
6.673139333724976,2.3439720087018023
6.675457239151001,2.3131617680980883
6.67779541015625,2.278374109074367
6.680120468139648,2.2334083596954772
6.682481050491333,2.256108791364287
6.684748411178589,2.2746601432156734
6.6870012283325195,2.292224442031913
6.6892547607421875,2.3098757636398988
6.691507577896118,2.3254373461529427
6.693760633468628,2.343631070093044
6.696012020111084,2.3564603753638713
6.698265790939331,2.3745772093030464
6.700520753860474,2.3898461329753555
6.702772617340088,2.4047031885031687
6.7050254344940186,2.419778397056865
6.707276821136475,2.4313071288236534
6.709531307220459,2.443902783859108
6.711786508560181,2.444657974798438
6.7140398025512695,2.4631491259514244
6.7162909507751465,2.472534474436578
6.718546152114868,2.4850109201682713
6.720799684524536,2.497148811477281
6.723051071166992,2.5060370571657486
6.725304126739502,2.5164273400816133
6.727555990219116,2.5341942947142475
6.729808807373047,2.534264628203467
6.732059478759766,2.545621102526319
6.7343127727508545,2.554173774024698
6.736566066741943,2.5606295538699095
6.738817453384399,2.568595119547262
6.741077184677124,2.5732275930914392
6.743328809738159,2.5782677624544816
6.745581865310669,2.5857219202186967
6.7478346824646,2.591046999817729
6.750089645385742,2.5949147456782753
6.7523415088653564,2.597503971755978
6.754595041275024,2.600773286911641
6.756849527359009,2.6149228352216287
6.759100675582886,2.6125052705413427
6.7613537311553955,2.609091116081609
6.7636048793792725,2.610034657720883
6.765857934951782,2.612404538679664
6.768108606338501,2.6119741930930847
6.770361423492432,2.61181147239345
6.7726147174835205,2.6124563947268005
6.774866580963135,2.609172178408167
6.777119874954224,2.609668089111816
6.779370307922363,2.6092955600375602
6.781622886657715,2.612383677051506
6.783874273300171,2.6062449939543
6.786127328872681,2.602966142054336
6.788378477096558,2.600704145515459
6.790631532669067,2.597658943850868
6.792883396148682,2.596283268485459
6.7951343059539795,2.593306612170531
6.79738712310791,2.5911721695866787
6.799638748168945,2.5881376967594263
6.801891565322876,2.5844493609010413
6.804142951965332,2.5799468254979643
6.806396007537842,2.5770732852307896
6.8086488246917725,2.57326216378953
6.810899496078491,2.5710085119019164
6.81315279006958,2.5556078619489506
6.815404176712036,2.5514224232938796
6.817658424377441,2.5485417304684796
6.819910526275635,2.547692364179178
6.8221635818481445,2.5420656850416283
6.824415683746338,2.5392028736117926
6.826668977737427,2.5365337773005696
6.828921318054199,2.5340202491307555
6.831172943115234,2.5321963467832025
6.833425760269165,2.5195565843053562
6.835677146911621,2.5260713727559296
6.837930202484131,2.5228491452752526
6.840181350708008,2.519525589886378
6.84243369102478,2.5098446023278953
6.844692230224609,2.50939220302012
6.846944808959961,2.5053408748317807
6.849199533462524,2.5043496494710027
6.8514509201049805,2.501468360599084
6.853704214096069,2.4989554284757887
6.855956077575684,2.4974527952018732
6.858209848403931,2.495512067736634
6.860461235046387,2.4952372902914632
6.862715005874634,2.4902650702315654
6.8649678230285645,2.49456375772521
6.8672194480896,2.49270826491216
6.869472026824951,2.4918332686225497
6.871723175048828,2.4912276853594406
6.873977184295654,2.4976912138093965
6.876229524612427,2.484642563419648
6.878486156463623,2.486350832742552
6.880739688873291,2.4851992708682147
6.882997512817383,2.4976477024135235
6.8852503299713135,2.4838963131780996
6.8875017166137695,2.4834111313117897
6.889754772186279,2.482677398047137
6.892005443572998,2.48286574874708
6.894258499145508,2.483752069920548
6.896517038345337,2.4853423220327286
6.898767948150635,2.480737266628416
6.901020526885986,2.485524116220965
6.903271675109863,2.4850907904017916
6.905524730682373,2.485760150642413
6.907776355743408,2.4857255799443223
6.91002893447876,2.4873164281030213
6.912280321121216,2.487090526472393
6.914533853530884,2.48443633132414
6.916786432266235,2.4729564753718942
6.919039249420166,2.4176737567989535
6.921377182006836,2.390883849964601
6.923676013946533,2.407359171790978
6.925942659378052,2.413747598379564
6.928196430206299,2.4199548268264324
6.930449962615967,2.4248275071176897
6.932703971862793,2.431491307197965
6.934955358505249,2.436633996562242
6.937207221984863,2.4419364263935597
6.93945837020874,2.4560984916804425
6.941720962524414,2.4532112423433357
6.94397234916687,2.458334262172492
6.9462244510650635,2.4610176636001664
6.948483943939209,2.4702337348739785
6.950736999511719,2.4612185312770047
6.952989816665649,2.4783775184604546
6.9552412033081055,2.4823001006007313
6.957494258880615,2.4862495048343547
6.959745407104492,2.492065726764885
6.9620020389556885,2.4719151821035363
6.964301824569702,2.472839650254208
6.966572284698486,2.4787792538141313
6.968851566314697,2.460857327086607
6.971146106719971,2.472994026302579
6.973405361175537,2.4612250877887116
6.9756574630737305,2.4839022736432876
6.977911710739136,2.489703594410848
6.980163812637329,2.4921843400221277
6.982417821884155,2.4989774821969846
6.984671354293823,2.5022748115390314
6.986922740936279,2.5050523883166775
6.989175796508789,2.50986725209561
6.9914305210113525,2.5129982844589094
6.9936840534210205,2.517254652649719
6.9959352016448975,2.5200554752415987
6.998189449310303,2.5229588178347133
7.000440835952759,2.5341972749468415
7.002701044082642,2.5195643329101007
7.0049543380737305,2.52923697581732
7.007206916809082,2.5310340560715265
7.009459733963013,2.536877696141922
7.011711359024048,2.5365617914869536
7.0139641761779785,2.5386932538382116
7.016215801239014,2.5403526473465736
7.018468379974365,2.519553604072762
7.020721197128296,2.536881272421035
7.022972345352173,2.5318363346858423
7.025224447250366,2.5335320870318516
7.027475833892822,2.5344339054148084
7.029729127883911,2.534475628671125
7.031980037689209,2.5344684761128993
7.0342323780059814,2.537312810100652
7.036491632461548,2.5377467319663443
7.038748741149902,2.5368222638156728
7.0410027503967285,2.5379130289450917
7.043553590774536,2.5345239084391484
7.045829772949219,2.533425394704985
7.04808235168457,2.529469433959655
7.050337553024292,2.532949749582976
7.052591800689697,2.530340257923634
7.054842710494995,2.5306609309507526
7.057096242904663,2.5367167635818437
7.059347629547119,2.530629340485256
7.0615997314453125,2.5308135188595675
7.063851833343506,2.529552880472288
7.066105365753174,2.5302264130385415
7.068356990814209,2.529239360003395
7.07060980796814,2.5279048118477836
7.0728631019592285,2.519718708958472
7.0751142501831055,2.5251892239080935
7.077367305755615,2.5249782234404354
7.079617977142334,2.523997726916996
7.081871032714844,2.524696293437039
7.084122180938721,2.5235387710975137
7.0863752365112305,2.522521915736427
7.088628530502319,2.521163525720063
7.090879201889038,2.5200691843115313
7.093132257461548,2.5129970923658718
7.095394134521484,2.5151893514620483
7.097649812698364,2.5143244879632576
7.099901437759399,2.5147166865726334
7.102154493331909,2.5114938630454375
7.104406356811523,2.511120141878145
7.106659173965454,2.509451211625482
7.108911991119385,2.5093218695309005
7.111162900924683,2.5101795804714655
7.113415956497192,2.509985269306334
7.115667104721069,2.509863675816497
7.117920637130737,2.500281035933618
7.120171308517456,2.495132982150672
7.122426271438599,2.4931290737544387
7.124679803848267,2.493802606320692
7.1269309520721436,2.4955806130862968
7.129184007644653,2.4976345893901097
7.131435394287109,2.497842013578655
7.13368821144104,2.4968335028688315
7.135939836502075,2.4963179226300625
7.138193130493164,2.4962022896054137
7.140443801879883,2.4957838649492103
7.142704486846924,2.4970629807785727
7.1449573040008545,2.4985858796341276
7.1472086906433105,2.496887743102043
7.149462461471558,2.498799264287861
7.151713848114014,2.4985733626572326
7.153966665267944,2.4975755807847477
7.1562182903289795,2.495281397733855
7.158470630645752,2.500000894069778
7.160723686218262,2.500213086630474
7.162975788116455,2.5002202391886996
7.165229320526123,2.5022342803757525
7.167480707168579,2.497637569622704
7.1697797775268555,2.4750378698155724
7.172073841094971,2.4612411810447195
7.174339056015015,2.4711003865123256
7.176686763763428,2.4469187792442773
7.179000616073608,2.4443420701434695
7.181317567825317,2.431252888590442
7.183589935302734,2.4409577180096766
7.185848951339722,2.445408993412136
7.1880998611450195,2.449414426018527
7.190356254577637,2.4532028976920723
7.192610025405884,2.459011371017858
7.19486141204834,2.4641272382887887
7.19711446762085,2.468808587647508
7.199365615844727,2.461115415229251
7.201618432998657,2.460956270808729
7.203870058059692,2.480734882442341
7.206123352050781,2.4840244631796433
7.208374500274658,2.4978408214856174
7.210627555847168,2.492904960263367
7.212881088256836,2.4953785533164208
7.215132236480713,2.5006678701243246
7.217388391494751,2.501352727574435
7.2196409702301025,2.504184544585293
7.221894025802612,2.5020286443267636
7.22414493560791,2.493877708182062
7.226405620574951,2.502217591073226
7.2286598682403564,2.5051805383182213
7.230911731719971,2.508205474401173
7.233164548873901,2.5109228504804193
7.235416412353516,2.51488834797005
7.237668991088867,2.515400947976225
7.239920377731323,2.50022500756085
7.242173671722412,2.5168374200865533
7.244428873062134,2.500179111978902
7.246685266494751,2.518607082200895
7.248939275741577,2.5198975229141145
7.251190423965454,2.5218591120075122
7.253444671630859,2.5224116471304474
7.255696535110474,2.5198254012853387
7.257950305938721,2.524833980182884
7.2602009773254395,2.5273588332365553
7.262454032897949,2.5290706788385724
7.264713764190674,2.534413639833169
7.266965627670288,2.5294032727960674
7.26921820640564,2.5366827889302717
7.271469593048096,2.5318911709655727
7.273722410202026,2.5342068116911425
7.2759740352630615,2.536881272421035
7.2782275676727295,2.532493177949569
7.280486106872559,2.5330355802816844
7.28273868560791,2.5334736744730084
7.284991502761841,2.533279363307877
7.287242889404297,2.5367888852106195
7.289496421813965,2.533102337491791
7.291747331619263,2.532987300513661
7.293999910354614,2.533865873082384
7.296250820159912,2.536917631258682
7.298502683639526,2.5338652770358654
7.300755262374878,2.5327393451618367
7.303006887435913,2.5315532125894085
7.305260181427002,2.530746761649461
7.307510614395142,2.5344023149493116
7.309763431549072,2.5299033558253474
7.312015533447266,2.528562847204548
7.314267873764038,2.528608742786496
7.316520929336548,2.5280764732452004
7.318771839141846,2.5366368933483234
7.3210248947143555,2.5367489500938594
7.323276996612549,2.522829475740132
7.325529336929321,2.5077208885813818
7.3277809619903564,2.5109943760626763
7.330034255981445,2.511526049557453
7.332285404205322,2.5113663090904126
7.334539413452148,2.511306108392013
7.336792230606079,2.5102284562860078
7.339043617248535,2.510268391402768
7.341296434402466,2.509136499063551
7.3435468673706055,2.509628237441568
7.345799922943115,2.510140837447743
7.348051309585571,2.5147661584336944
